-0.53
-0.505
-0.505
-0.51
-0.505
-0.51
-0.5
-0.505
-0.505
-0.51
-0.5
-0.495
-0.49
-0.48
-0.47
-0.485
-0.465
-0.45
-0.43
-0.41
-0.395
-0.395
-0.37
-0.365
-0.375
-0.375
-0.375
-0.38
-0.385
-0.4
-0.4
-0.405
-0.4
-0.395
-0.39
-0.375
-0.385
-0.385
-0.38
-0.355
-0.345
-0.355
-0.34
-0.34
-0.335
-0.335
-0.33
-0.325
-0.33
-0.32
-0.34
-0.345
-0.34
-0.32
-0.34
-0.345
-0.34
-0.335
-0.32
-0.34
-0.335
-0.315
-0.34
-0.315
-0.325
-0.315
-0.305
-0.31
-0.32
-0.32
-0.325
-0.335
-0.32
-0.33
-0.32
-0.32
-0.315
-0.32
-0.315
-0.31
-0.31
-0.305
-0.275
-0.26
-0.25
-0.24
-0.245
-0.25
-0.27
-0.26
-0.245
-0.255
-0.25
-0.255
-0.25
-0.25
-0.265
-0.275
-0.275
-0.265
-0.26
-0.255
-0.245
-0.24
-0.24
-0.255
-0.235
-0.105
0.2
0.495
0.56
0.03
-0.495
-0.555
-0.415
-0.285
-0.27
-0.265
-0.27
-0.27
-0.26
-0.265
-0.255
-0.255
-0.245
-0.24
-0.255
-0.25
-0.255
-0.25
-0.25
-0.225
-0.24
-0.23
-0.24
-0.24
-0.235
-0.225
-0.225
-0.22
-0.215
-0.21
-0.195
-0.19
-0.17
-0.165
-0.14
-0.14
-0.11
-0.11
-0.1
-0.09
-0.095
-0.1
-0.105
-0.11
-0.12
-0.115
-0.095
-0.105
-0.09
-0.08
-0.095
-0.09
-0.075
-0.09
-0.09
-0.075
-0.065
-0.075
-0.07
-0.06
-0.05
-0.06
-0.055
-0.055
-0.045
-0.045
-0.045
-0.045
-0.055
0.065
0.355
0.65
0.74
0.255
-0.355
-0.365
-0.185
-0.1
-0.105
-0.115
-0.11
-0.11
-0.115
-0.12
-0.12
-0.135
-0.13
-0.135
-0.135
-0.14
-0.13
-0.14
-0.13
-0.13
-0.115
-0.12
-0.115
-0.12
-0.12
-0.125
-0.11
-0.115
-0.105
-0.09
-0.11
-0.095
-0.075
-0.05
-0.025
-0.02
-0.01
-0.005
-0.005
-0.005
-0.015
-0.015
-0.005
-0.02
-0.02
-0.03
-0.025
-0.025
-0.015
-0.01
-0.015
-0.015
-0.02
-0.015
-0.01
0.0
0.0
-0.005
0.005
0.0
0.01
0.005
0.01
0.015
0.015
0.025
0.015
0.0
0.0
0.0
0.015
0.005
0.0
-0.005
0.0
0.0
0.0
0.0
0.0
0.0
0.01
0.005
0.0
0.005
0.02
0.015
0.015
0.005
0.015
0.005
0.005
0.0
0.0
-0.005
0.0
0.005
0.0
0.01
0.005
0.005
0.01
0.01
0.02
0.02
0.035
0.025
0.03
0.02
0.025
0.015
0.025
0.015
0.015
0.015
0.02
0.01
0.01
0.01
0.015
0.02
0.01
0.015
0.015
0.02
0.025
0.03
0.03
0.035
0.015
0.015
0.03
0.035
0.045
0.05
0.04
0.03
0.04
0.02
0.02
0.035
0.02
0.035
0.035
0.035
0.035
0.05
0.02
0.02
0.015
0.03
0.02
0.03
0.035
0.025
0.015
0.02
0.14
0.44
0.735
0.795
0.265
-0.27
-0.32
-0.185
-0.055
-0.045
-0.045
-0.045
-0.035
-0.035
-0.035
-0.045
-0.055
-0.045
-0.055
-0.06
-0.055
-0.06
-0.06
-0.08
-0.075
-0.075
-0.075
-0.06
-0.065
-0.055
-0.06
-0.055
-0.04
-0.04
-0.04
-0.04
-0.035
-0.02
-0.015
-0.01
0.0
0.02
0.01
0.03
0.055
0.075
0.07
0.085
0.09
0.08
0.07
0.075
0.07
0.07
0.075
0.06
0.06
0.07
0.07
0.07
0.06
0.07
0.075
0.065
0.07
0.065
0.08
0.09
0.085
0.08
0.095
0.095
0.09
0.095
0.095
0.1
0.1
0.08
0.065
0.07
0.07
0.055
0.06
0.05
0.045
0.03
0.045
0.035
0.035
0.025
0.04
0.03
0.035
0.03
0.04
0.03
0.045
0.04
0.035
0.03
0.04
0.03
0.04
0.03
0.02
0.005
0.045
0.045
0.04
0.025
0.05
0.03
0.02
0.03
0.04
0.035
0.04
0.03
0.035
0.025
0.015
0.0
0.0
0.0
0.0
-0.02
-0.005
-0.005
-0.015
-0.03
0.0
0.18
0.51
0.79
0.62
-0.04
-0.39
-0.34
-0.155
-0.065
-0.065
-0.075
-0.075
-0.07
-0.085
-0.08
-0.095
-0.095
-0.105
-0.095
-0.1
-0.105
-0.11
-0.105
-0.105
-0.095
-0.1
-0.105
-0.11
-0.11
-0.1
-0.1
-0.095
-0.1
-0.1
-0.095
-0.085
-0.085
-0.085
-0.07
-0.06
-0.06
-0.05
-0.035
-0.01
-0.015
-0.005
-0.01
-0.01
-0.035
-0.04
-0.025
-0.03
-0.025
-0.02
-0.005
-0.02
-0.02
-0.035
-0.04
-0.045
-0.025
-0.025
-0.03
-0.035
-0.035
-0.03
-0.02
-0.01
-0.01
0.0
0.0
-0.005
-0.005
-0.015
0.135
0.44
0.715
0.825
0.345
-0.315
-0.33
-0.185
-0.085
-0.09
-0.105
-0.11
-0.095
-0.095
-0.1
-0.095
-0.1
-0.105
-0.11
-0.105
-0.11
-0.11
-0.115
-0.125
-0.135
-0.135
-0.13
-0.145
-0.155
-0.14
-0.145
-0.145
-0.125
-0.145
-0.12
-0.115
-0.12
-0.095
-0.085
-0.08
-0.06
-0.05
-0.04
-0.035
-0.055
-0.065
-0.065
-0.08
-0.085
-0.085
-0.095
-0.09
-0.105
-0.105
-0.1
-0.08
-0.085
-0.08
-0.085
-0.075
-0.075
-0.08
-0.055
-0.085
-0.075
-0.1
-0.09
-0.095
-0.085
-0.09
-0.075
-0.11
-0.095
-0.105
-0.1
-0.12
-0.09
-0.09
-0.1
-0.105
-0.09
-0.105
-0.11
-0.115
-0.11
-0.105
-0.105
-0.12
-0.12
-0.11
-0.1
-0.11
-0.1
-0.115
-0.115
-0.1
-0.105
-0.1
-0.09
-0.095
-0.09
-0.095
-0.09
-0.095
-0.085
-0.095
-0.1
-0.1
-0.095
-0.11
-0.1
-0.095
-0.1
-0.09
-0.115
-0.115
-0.11
-0.115
-0.095
-0.1
-0.1
-0.095
-0.085
-0.09
-0.09
-0.09
-0.105
-0.085
-0.095
-0.095
-0.09
-0.1
-0.085
-0.1
-0.08
-0.09
-0.07
-0.075
-0.07
-0.075
-0.07
-0.065
-0.08
-0.09
-0.085
-0.075
-0.08
-0.085
-0.09
-0.085
-0.1
-0.11
-0.13
-0.115
-0.125
-0.13
-0.12
-0.12
-0.13
-0.105
-0.12
-0.015
0.25
0.545
0.61
0.075
-0.455
-0.5
-0.35
-0.22
-0.205
-0.2
-0.205
-0.2
-0.21
-0.21
-0.22
-0.215
-0.22
-0.215
-0.205
-0.22
-0.225
-0.22
-0.24
-0.245
-0.225
-0.24
-0.25
-0.245
-0.255
-0.26
-0.255
-0.245
-0.235
-0.25
-0.235
-0.23
-0.225
-0.22
-0.21
-0.19
-0.17
-0.155
-0.145
-0.14
-0.12
-0.12
-0.115
-0.13
-0.135
-0.145
-0.15
-0.15
-0.15
-0.15
-0.155
-0.155
-0.16
-0.15
-0.15
-0.15
-0.135
-0.135
-0.13
-0.115
-0.115
-0.11
-0.115
-0.11
-0.105
-0.11
-0.115
-0.115
-0.125
-0.12
-0.13
-0.13
-0.135
-0.135
-0.145
-0.135
-0.14
-0.135
-0.14
-0.145
-0.145
-0.15
-0.155
-0.145
-0.155
-0.175
-0.17
-0.18
-0.175
-0.17
-0.175
-0.17
-0.155
-0.17
-0.18
-0.185
-0.185
-0.17
-0.18
-0.155
-0.18
-0.17
-0.17
-0.145
-0.16
-0.16
-0.16
-0.17
-0.185
-0.18
-0.18
-0.18
-0.17
-0.18
-0.17
-0.16
-0.19
-0.2
-0.2
-0.21
-0.205
-0.215
-0.215
-0.22
-0.23
-0.235
-0.235
-0.115
0.16
0.485
0.605
0.145
-0.46
-0.585
-0.47
-0.325
-0.29
-0.295
-0.29
-0.29
-0.29
-0.29
-0.3
-0.295
-0.295
-0.3
-0.305
-0.305
-0.315
-0.325
-0.34
-0.325
-0.315
-0.33
-0.32
-0.33
-0.325
-0.325
-0.33
-0.31
-0.315
-0.295
-0.315
-0.315
-0.31
-0.295
-0.285
-0.285
-0.27
-0.26
-0.255
-0.24
-0.225
-0.24
-0.23
-0.24
-0.24
-0.25
-0.245
-0.24
-0.24
-0.23
-0.225
-0.23
-0.235
-0.225
-0.22
-0.225
-0.23
-0.23
-0.215
-0.225
-0.21
-0.185
-0.195
-0.2
-0.19
-0.19
-0.19
-0.2
-0.195
-0.19
-0.195
-0.195
-0.195
-0.19
-0.195
-0.205
-0.205
-0.21
-0.215
-0.22
-0.22
-0.225
-0.225
-0.22
-0.21
-0.21
-0.225
-0.23
-0.23
-0.22
-0.215
-0.21
-0.23
-0.225
-0.215
-0.21
-0.21
-0.215
-0.205
-0.21
-0.2
-0.21
-0.19
-0.19
-0.19
-0.19
-0.205
-0.21
-0.195
-0.195
-0.195
-0.18
-0.18
-0.2
-0.2
-0.205
-0.21
-0.22
-0.23
-0.23
-0.225
-0.22
-0.245
-0.245
-0.2
-0.01
0.295
0.55
0.37
-0.255
-0.585
-0.54
-0.37
-0.275
-0.27
-0.275
-0.28
-0.28
-0.27
-0.285
-0.295
-0.31
-0.29
-0.3
-0.315
-0.295
-0.31
-0.315
-0.31
-0.31
-0.305
-0.32
-0.3
-0.3
-0.29
-0.305
-0.3
-0.3
-0.305
-0.29
-0.285
-0.285
-0.28
-0.255
-0.24
-0.23
-0.22
-0.2
-0.2
-0.185
-0.19
-0.19
-0.195
-0.19
-0.2
-0.205
-0.2
-0.205
-0.21
-0.205
-0.21
-0.21
-0.23
-0.22
-0.21
-0.22
-0.2
-0.2
-0.18
-0.19
-0.175
-0.18
-0.175
-0.165
-0.15
-0.155
-0.15
-0.15
-0.135
-0.15
-0.15
-0.15
-0.17
-0.175
-0.175
-0.17
-0.185
-0.175
-0.18
-0.175
-0.175
-0.175
-0.18
-0.165
-0.165
-0.175
-0.17
-0.165
-0.155
-0.155
-0.16
-0.175
-0.17
-0.165
-0.175
-0.175
-0.17
-0.165
-0.145
-0.14
-0.135
-0.14
-0.13
-0.135
-0.15
-0.14
-0.135
-0.14
-0.13
-0.14
-0.14
-0.14
-0.175
-0.175
-0.18
-0.185
-0.195
-0.185
-0.185
-0.19
-0.175
-0.195
-0.17
0.03
0.375
0.675
0.565
-0.085
-0.495
-0.5
-0.345
-0.24
-0.225
-0.245
-0.25
-0.245
-0.25
-0.27
-0.255
-0.25
-0.245
-0.255
-0.265
-0.26
-0.265
-0.265
-0.255
-0.25
-0.25
-0.25
-0.24
-0.245
-0.245
-0.255
-0.235
-0.25
-0.26
-0.25
-0.245
-0.235
-0.21
-0.2
-0.185
-0.18
-0.17
-0.16
-0.145
-0.13
-0.12
-0.14
-0.145
-0.15
-0.145
-0.16
-0.155
-0.16
-0.15
-0.17
-0.165
-0.16
-0.16
-0.155
-0.145
-0.15
-0.14
-0.14
-0.12
-0.11
-0.11
-0.1
-0.09
-0.095
-0.1
-0.1
-0.105
-0.1
-0.11
-0.12
-0.125
-0.115
-0.115
-0.11
-0.115
-0.12
-0.12
-0.12
-0.12
-0.12
-0.125
-0.11
-0.11
-0.115
-0.12
-0.12
-0.115
-0.115
-0.12
-0.135
-0.125
-0.12
-0.125
-0.13
-0.13
-0.11
-0.105
-0.09
-0.1
-0.085
-0.08
-0.085
-0.09
-0.095
-0.085
-0.09
-0.1
-0.085
-0.08
-0.11
-0.13
-0.13
-0.13
-0.12
-0.135
-0.135
-0.13
-0.14
-0.15
-0.13
-0.085
0.13
0.44
0.665
0.405
-0.22
-0.48
-0.415
-0.245
-0.19
-0.175
-0.2
-0.195
-0.2
-0.18
-0.185
-0.195
-0.2
-0.195
-0.2
-0.195
-0.195
-0.19
-0.19
-0.19
-0.18
-0.19
-0.19
-0.195
-0.2
-0.205
-0.21
-0.19
-0.2
-0.195
-0.18
-0.17
-0.16
-0.165
-0.145
-0.12
-0.115
-0.095
-0.09
-0.075
-0.07
-0.08
-0.09
-0.075
-0.095
-0.115
-0.125
-0.135
-0.13
-0.125
-0.135
-0.135
-0.125
-0.115
-0.135
-0.13
-0.115
-0.08
-0.095
-0.1
-0.095
-0.09
-0.09
-0.09
-0.09
-0.08
-0.08
-0.085
-0.08
-0.085
-0.08
-0.09
-0.095
-0.105
-0.1
-0.1
-0.105
-0.095
-0.09
-0.1
-0.1
-0.095
-0.105
-0.1
-0.1
-0.105
-0.115
-0.135
-0.125
-0.125
-0.115
-0.115
-0.105
-0.115
-0.105
-0.115
-0.115
-0.115
-0.08
-0.07
-0.065
-0.055
-0.08
-0.095
-0.09
-0.085
-0.08
-0.09
-0.09
-0.08
-0.08
-0.09
-0.11
-0.11
-0.12
-0.12
-0.125
-0.11
-0.115
-0.12
-0.13
-0.125
-0.035
0.255
0.575
0.72
0.265
-0.345
-0.48
-0.37
-0.24
-0.2
-0.205
-0.205
-0.21
-0.215
-0.21
-0.2
-0.22
-0.215
-0.2
-0.19
-0.205
-0.195
-0.195
-0.205
-0.195
-0.19
-0.2
-0.195
-0.205
-0.21
-0.225
-0.21
-0.2
-0.195
-0.19
-0.175
-0.18
-0.18
-0.17
-0.145
-0.135
-0.135
-0.115
-0.095
-0.095
-0.095
-0.105
-0.115
-0.125
-0.15
-0.145
-0.14
-0.13
-0.12
-0.115
-0.11
-0.125
-0.125
-0.125
-0.135
-0.11
-0.1
-0.11
-0.095
-0.09
-0.08
-0.08
-0.085
-0.085
-0.07
-0.075
-0.075
-0.075
-0.075
-0.02
0.24
0.54
0.775
0.54
-0.19
-0.41
-0.285
-0.155
-0.12
-0.14
-0.145
-0.14
-0.135
-0.15
-0.16
-0.16
-0.17
-0.16
-0.16
-0.155
-0.155
-0.155
-0.155
-0.16
-0.165
-0.16
-0.16
-0.145
-0.15
-0.155
-0.155
-0.15
-0.155
-0.145
-0.13
-0.115
-0.115
-0.115
-0.095
-0.08
-0.07
-0.055
-0.055
-0.065
-0.07
-0.085
-0.095
-0.08
-0.095
-0.1
-0.1
-0.11
-0.105
-0.115
-0.1
-0.105
-0.1
-0.11
-0.105
-0.105
-0.1
-0.095
-0.09
-0.085
-0.095
-0.085
-0.095
-0.095
-0.075
-0.08
-0.09
-0.1
-0.105
-0.095
-0.105
-0.09
-0.1
-0.105
-0.115
-0.115
-0.105
-0.115
-0.11
-0.12
-0.12
-0.115
-0.125
-0.12
-0.12
-0.105
-0.11
-0.1
-0.11
-0.095
-0.105
-0.1
-0.105
-0.12
-0.115
-0.11
-0.12
-0.115
-0.115
-0.115
-0.11
-0.11
-0.11
-0.11
-0.115
-0.115
-0.09
-0.095
-0.09
-0.08
-0.09
-0.08
-0.09
-0.08
-0.085
-0.08
-0.095
-0.095
-0.105
-0.095
-0.09
-0.075
-0.085
-0.09
-0.09
-0.1
-0.085
-0.085
-0.08
-0.08
-0.06
-0.05
-0.05
-0.075
-0.05
-0.065
-0.075
-0.085
-0.085
-0.075
-0.085
-0.065
-0.07
-0.075
-0.095
-0.1
-0.1
-0.095
-0.095
-0.09
-0.08
-0.065
-0.09
-0.105
-0.05
0.185
0.495
0.73
0.465
-0.205
-0.48
-0.4
-0.23
-0.175
-0.18
-0.185
-0.2
-0.175
-0.175
-0.185
-0.18
-0.19
-0.195
-0.195
-0.21
-0.215
-0.21
-0.225
-0.215
-0.235
-0.235
-0.225
-0.235
-0.235
-0.235
-0.225
-0.215
-0.215
-0.215
-0.21
-0.195
-0.2
-0.17
-0.17
-0.16
-0.155
-0.135
-0.12
-0.105
-0.1
-0.095
-0.085
-0.075
-0.09
-0.08
-0.1
-0.095
-0.1
-0.105
-0.105
-0.1
-0.085
-0.095
-0.1
-0.1
-0.105
-0.09
-0.09
-0.095
-0.095
-0.085
-0.08
-0.085
-0.08
-0.065
-0.065
-0.075
-0.09
-0.085
-0.095
-0.075
-0.075
-0.07
-0.07
-0.09
-0.085
-0.09
-0.095
-0.095
-0.095
-0.11
-0.115
-0.1
-0.1
-0.09
-0.09
-0.1
-0.09
-0.115
-0.095
-0.1
-0.09
-0.075
-0.07
-0.085
-0.085
-0.09
-0.09
-0.085
-0.075
-0.06
-0.065
-0.06
-0.055
-0.05
-0.06
-0.065
-0.065
-0.07
-0.065
-0.055
-0.05
-0.045
-0.045
-0.075
-0.085
-0.075
-0.08
-0.08
-0.075
-0.075
-0.085
-0.09
-0.1
-0.055
0.15
0.48
0.71
0.495
-0.13
-0.44
-0.38
-0.235
-0.135
-0.135
-0.13
-0.14
-0.135
-0.13
-0.125
-0.13
-0.135
-0.14
-0.15
-0.155
-0.155
-0.15
-0.155
-0.165
-0.16
-0.16
-0.16
-0.155
-0.155
-0.155
-0.15
-0.155
-0.145
-0.135
-0.15
-0.135
-0.12
-0.12
-0.12
-0.1
-0.09
-0.085
-0.07
-0.055
-0.055
-0.06
-0.075
-0.08
-0.1
-0.1
-0.07
-0.075
-0.065
-0.065
-0.065
-0.075
-0.07
-0.1
-0.085
-0.07
-0.08
-0.08
-0.07
-0.065
-0.075
-0.075
-0.06
-0.06
-0.045
-0.06
-0.045
-0.04
-0.045
-0.005
0.215
0.5
0.71
0.495
-0.2
-0.375
-0.23
-0.1
-0.08
-0.1
-0.09
-0.085
-0.1
-0.095
-0.095
-0.095
-0.095
-0.085
-0.075
-0.08
-0.08
-0.075
-0.075
-0.09
-0.08
-0.08
-0.09
-0.08
-0.075
-0.075
-0.08
-0.08
-0.085
-0.09
-0.07
-0.055
-0.05
-0.035
-0.015
0.0
0.005
0.005
0.02
0.0
0.0
-0.02
-0.025
-0.03
-0.045
-0.05
-0.05
-0.045
-0.055
-0.05
-0.065
-0.035
-0.055
-0.04
-0.045
-0.02
-0.005
0.0
-0.01
-0.005
-0.01
-0.01
-0.02
-0.015
-0.015
-0.02
-0.045
-0.035
-0.03
-0.045
-0.05
-0.045
-0.055
-0.05
-0.065
-0.065
-0.05
-0.05
-0.065
-0.06
-0.06
-0.07
-0.07
-0.075
-0.07
-0.075
-0.09
-0.085
-0.08
-0.065
-0.085
-0.085
-0.08
-0.08
-0.075
-0.08
-0.085
-0.075
-0.065
-0.08
-0.08
-0.075
-0.075
-0.08
-0.08
-0.075
-0.075
-0.085
-0.1
-0.09
-0.095
-0.09
-0.1
-0.095
-0.1
-0.105
-0.095
-0.1
-0.09
-0.09
-0.085
-0.09
-0.09
-0.1
-0.085
-0.1
-0.08
-0.09
-0.095
-0.1
-0.095
-0.09
-0.07
-0.065
-0.07
-0.065
-0.065
-0.07
-0.075
-0.07
-0.06
-0.055
-0.065
-0.07
-0.06
-0.07
-0.07
-0.085
-0.08
-0.08
-0.09
-0.09
-0.085
-0.09
-0.08
-0.105
-0.015
0.235
0.55
0.76
0.445
-0.2
-0.44
-0.37
-0.21
-0.16
-0.16
-0.17
-0.175
-0.185
-0.185
-0.195
-0.195
-0.195
-0.2
-0.205
-0.215
-0.205
-0.215
-0.21
-0.225
-0.225
-0.225
-0.21
-0.21
-0.2
-0.205
-0.205
-0.215
-0.195
-0.19
-0.2
-0.19
-0.195
-0.175
-0.17
-0.155
-0.14
-0.13
-0.115
-0.095
-0.105
-0.075
-0.075
-0.065
-0.065
-0.075
-0.08
-0.09
-0.1
-0.11
-0.095
-0.11
-0.11
-0.115
-0.105
-0.115
-0.11
-0.11
-0.1
-0.105
-0.105
-0.1
-0.08
-0.08
-0.075
-0.075
-0.07
-0.075
-0.075
-0.085
-0.085
-0.075
-0.1
-0.105
-0.105
-0.11
-0.11
-0.115
-0.11
-0.12
-0.115
-0.12
-0.11
-0.11
-0.1
-0.1
-0.1
-0.115
-0.11
-0.12
-0.12
-0.11
-0.115
-0.12
-0.12
-0.125
-0.135
-0.125
-0.125
-0.115
-0.09
-0.09
-0.1
-0.095
-0.075
-0.09
-0.1
-0.09
-0.085
-0.085
-0.08
-0.085
-0.085
-0.095
-0.115
-0.13
-0.14
-0.125
-0.13
-0.13
-0.13
-0.13
-0.125
-0.14
-0.095
0.07
0.375
0.63
0.44
-0.185
-0.495
-0.43
-0.26
-0.19
-0.195
-0.21
-0.22
-0.22
-0.225
-0.225
-0.21
-0.23
-0.235
-0.235
-0.25
-0.235
-0.24
-0.23
-0.235
-0.24
-0.24
-0.245
-0.255
-0.265
-0.26
-0.285
-0.28
-0.285
-0.285
-0.27
-0.28
-0.275
-0.27
-0.26
-0.265
-0.24
-0.255
-0.225
-0.215
-0.21
-0.205
-0.215
-0.225
-0.24
-0.25
-0.255
-0.26
-0.29
-0.3
-0.305
-0.305
-0.3
-0.315
-0.315
-0.31
-0.315
-0.32
-0.31
-0.305
-0.3
-0.305
-0.3
-0.29
-0.295
-0.3
-0.295
-0.305
-0.315
-0.325
-0.32
-0.315
-0.325
-0.34
-0.34
-0.34
-0.36
-0.35
-0.355
-0.37
-0.37
-0.365
-0.375
-0.375
-0.38
-0.38
-0.39
-0.395
-0.4
-0.405
-0.39
-0.41
-0.42
-0.425
-0.43
-0.42
-0.415
-0.43
-0.425
-0.43
-0.415
-0.395
-0.39
-0.405
-0.4
-0.4
-0.415
-0.415
-0.415
-0.415
-0.42
-0.425
-0.435
-0.45
-0.46
-0.46
-0.46
-0.465
-0.475
-0.46
-0.465
-0.47
-0.47
-0.46
-0.36
-0.055
0.285
0.375
-0.14
-0.705
-0.775
-0.67
-0.56
-0.535
-0.555
-0.565
-0.555
-0.55
-0.56
-0.57
-0.56
-0.565
-0.575
-0.575
-0.565
-0.57
-0.58
-0.565
-0.55
-0.57
-0.57
-0.575
-0.585
-0.59
-0.6
-0.595
-0.58
-0.585
-0.565
-0.58
-0.56
-0.565
-0.56
-0.55
-0.54
-0.525
-0.505
-0.495
-0.495
-0.485
-0.485
-0.495
-0.51
-0.515
-0.52
-0.535
-0.535
-0.53
-0.545
-0.54
-0.545
-0.535
-0.535
-0.54
-0.535
-0.525
-0.5
-0.515
-0.505
-0.495
-0.5
-0.505
-0.49
-0.485
-0.5
-0.495
-0.495
-0.49
-0.495
-0.495
-0.505
-0.505
-0.51
-0.515
-0.51
-0.52
-0.5
-0.5
-0.51
-0.505
-0.51
-0.51
-0.5
-0.505
-0.505
-0.5
-0.515
-0.52
-0.51
-0.505
-0.5
-0.495
-0.47
-0.49
-0.475
-0.47
-0.455
-0.44
-0.43
-0.425
-0.445
-0.455
-0.44
-0.44
-0.44
-0.44
-0.425
-0.445
-0.45
-0.445
-0.445
-0.445
-0.44
-0.435
-0.435
-0.42
-0.425
-0.435
-0.41
-0.335
-0.065
0.24
0.405
0.035
-0.545
-0.71
-0.64
-0.495
-0.455
-0.455
-0.455
-0.45
-0.45
-0.45
-0.455
-0.45
-0.435
-0.43
-0.44
-0.42
-0.405
-0.41
-0.41
-0.405
-0.405
-0.41
-0.395
-0.41
-0.4
-0.405
-0.395
-0.395
-0.385
-0.395
-0.38
-0.365
-0.355
-0.36
-0.35
-0.315
-0.315
-0.29
-0.285
-0.27
-0.265
-0.27
-0.275
-0.27
-0.28
-0.285
-0.29
-0.29
-0.295
-0.295
-0.295
-0.29
-0.295
-0.29
-0.29
-0.29
-0.27
-0.27
-0.265
-0.25
-0.245
-0.245
-0.235
-0.225
-0.225
-0.23
-0.23
-0.235
-0.235
-0.23
-0.225
-0.225
-0.225
-0.23
-0.225
-0.225
-0.23
-0.22
-0.225
-0.205
-0.205
-0.2
-0.205
-0.205
-0.205
-0.21
-0.215
-0.205
-0.21
-0.22
-0.22
-0.22
-0.205
-0.215
-0.21
-0.2
-0.19
-0.175
-0.16
-0.16
-0.14
-0.125
-0.135
-0.15
-0.13
-0.135
-0.13
-0.13
-0.125
-0.125
-0.14
-0.145
-0.145
-0.135
-0.14
-0.135
-0.135
-0.13
-0.13
-0.125
-0.14
-0.035
0.215
0.545
0.775
0.465
-0.17
-0.415
-0.345
-0.2
-0.14
-0.16
-0.165
-0.16
-0.16
-0.16
-0.155
-0.165
-0.165
-0.155
-0.15
-0.155
-0.13
-0.145
-0.15
-0.135
-0.135
-0.125
-0.13
-0.125
-0.125
-0.125
-0.14
-0.12
-0.12
-0.105
-0.095
-0.08
-0.085
-0.065
-0.07
-0.04
-0.035
-0.005
0.005
0.02
0.03
0.025
0.02
0.01
0.015
0.01
0.005
-0.01
0.0
-0.005
0.0
0.0
0.005
0.005
0.005
0.005
0.015
0.01
0.025
0.055
0.05
0.05
0.05
0.07
0.075
0.075
0.075
0.08
0.07
0.065
0.075
0.065
0.07
0.08
0.075
0.075
0.085
0.08
0.085
0.095
0.095
0.095
0.095
0.09
0.095
0.09
0.095
0.095
0.09
0.09
0.1
0.095
0.1
0.105
0.105
0.11
0.125
0.135
0.125
0.12
0.14
0.155
0.14
0.13
0.145
0.135
0.145
0.15
0.155
0.155
0.145
0.135
0.12
0.12
0.135
0.145
0.14
0.145
0.15
0.14
0.17
0.405
0.725
0.975
0.805
0.17
-0.15
-0.11
0.05
0.105
0.135
0.13
0.125
0.11
0.13
0.105
0.105
0.105
0.115
0.105
0.11
0.115
0.11
0.1
0.115
0.12
0.135
0.12
0.13
0.135
0.13
0.14
0.135
0.135
0.135
0.14
0.16
0.165
0.175
0.19
0.195
0.21
0.205
0.215
0.225
0.245
0.245
0.225
0.225
0.225
0.195
0.205
0.205
0.2
0.2
0.205
0.195
0.185
0.19
0.19
0.2
0.185
0.19
0.19
0.195
0.195
0.2
0.225
0.2
0.22
0.23
0.21
0.23
0.225
0.215
0.205
0.205
0.2
0.205
0.2
0.195
0.19
0.2
0.185
0.195
0.185
0.18
0.18
0.18
0.185
0.19
0.195
0.185
0.185
0.185
0.175
0.17
0.175
0.17
0.195
0.2
0.2
0.2
0.21
0.19
0.19
0.2
0.185
0.18
0.19
0.195
0.21
0.195
0.185
0.175
0.165
0.16
0.17
0.155
0.155
0.17
0.17
0.155
0.185
0.365
0.68
0.935
0.825
0.175
-0.215
-0.16
0.025
0.12
0.13
0.125
0.12
0.12
0.11
0.11
0.105
0.095
0.095
0.09
0.075
0.065
0.07
0.05
0.05
0.06
0.055
0.045
0.05
0.055
0.06
0.06
0.065
0.055
0.06
0.065
0.07
0.075
0.085
0.095
0.105
0.11
0.115
0.135
0.14
0.14
0.15
0.13
0.12
0.13
0.125
0.11
0.12
0.125
0.115
0.105
0.11
0.115
0.1
0.1
0.09
0.105
0.095
0.105
0.11
0.11
0.095
0.105
0.11
0.105
0.11
0.1
0.105
0.115
0.125
0.115
0.11
0.105
0.08
0.105
0.08
0.09
0.08
0.075
0.065
0.06
0.055
0.05
0.07
0.055
0.045
0.06
0.05
0.05
0.05
0.05
0.05
0.06
0.05
0.045
0.05
0.055
0.075
0.08
0.07
0.07
0.065
0.055
0.055
0.065
0.05
0.065
0.055
0.05
0.06
0.05
0.04
0.035
0.03
0.035
0.03
0.03
0.03
0.035
0.025
0.025
0.08
0.31
0.63
0.87
0.65
-0.01
-0.295
-0.255
-0.095
-0.03
-0.03
-0.04
-0.02
-0.035
-0.03
-0.025
-0.025
-0.03
-0.02
-0.04
-0.04
-0.045
-0.06
-0.045
-0.05
-0.05
-0.045
-0.05
-0.05
-0.05
-0.055
-0.05
-0.04
-0.02
-0.03
-0.015
-0.02
-0.02
0.0
0.0
0.01
0.02
0.025
0.035
0.035
0.03
0.025
0.02
0.02
0.01
0.0
-0.005
-0.01
0.005
-0.005
0.0
0.0
0.0
0.005
0.0
0.005
0.0
0.0
0.02
0.0
0.0
0.015
0.01
0.02
0.0
0.015
0.01
0.01
0.005
0.005
0.005
0.015
0.005
0.015
0.0
-0.005
-0.005
-0.005
-0.01
-0.015
-0.02
-0.015
-0.01
-0.005
-0.005
-0.01
-0.02
-0.04
-0.035
-0.01
-0.015
-0.025
-0.01
-0.015
0.0
0.0
0.0
-0.01
-0.015
0.0
-0.03
-0.03
-0.02
-0.02
-0.02
-0.01
0.0
0.0
-0.015
-0.035
-0.045
-0.025
-0.035
-0.02
-0.02
-0.035
-0.035
-0.035
-0.04
0.015
0.22
0.515
0.73
0.465
-0.17
-0.395
-0.3
-0.125
-0.085
-0.07
-0.09
-0.075
-0.08
-0.08
-0.07
-0.075
-0.08
-0.075
-0.085
-0.09
-0.085
-0.09
-0.09
-0.09
-0.085
-0.1
-0.105
-0.09
-0.105
-0.105
-0.1
-0.1
-0.08
-0.08
-0.07
-0.07
-0.07
-0.05
-0.045
-0.035
-0.025
-0.015
-0.015
-0.005
-0.01
-0.005
-0.005
-0.01
-0.03
-0.035
-0.04
-0.045
-0.055
-0.055
-0.05
-0.065
-0.055
-0.07
-0.055
-0.06
-0.055
-0.065
-0.06
-0.06
-0.05
-0.065
-0.055
-0.04
-0.04
-0.03
-0.045
-0.03
-0.045
-0.04
-0.03
-0.04
-0.045
-0.045
-0.055
-0.05
-0.04
-0.055
-0.065
-0.07
-0.08
-0.075
-0.075
-0.07
-0.08
-0.075
-0.08
-0.08
-0.08
-0.08
-0.09
-0.085
-0.08
-0.08
-0.075
-0.07
-0.065
-0.04
-0.055
-0.055
-0.06
-0.08
-0.07
-0.08
-0.075
-0.085
-0.08
-0.075
-0.075
-0.08
-0.1
-0.11
-0.105
-0.095
-0.095
-0.095
-0.095
-0.08
-0.1
-0.115
-0.06
0.155
0.47
0.72
0.565
-0.055
-0.42
-0.395
-0.235
-0.155
-0.165
-0.16
-0.155
-0.145
-0.15
-0.155
-0.145
-0.145
-0.155
-0.155
-0.15
-0.15
-0.15
-0.17
-0.17
-0.175
-0.165
-0.165
-0.17
-0.17
-0.16
-0.16
-0.155
-0.15
-0.14
-0.135
-0.13
-0.12
-0.115
-0.1
-0.09
-0.08
-0.07
-0.065
-0.07
-0.065
-0.055
-0.065
-0.06
-0.08
-0.08
-0.08
-0.075
-0.1
-0.09
-0.09
-0.08
-0.075
-0.075
-0.075
-0.085
-0.075
-0.075
-0.08
-0.07
-0.07
-0.075
-0.065
-0.065
-0.055
-0.05
-0.055
-0.04
-0.055
-0.06
-0.06
-0.05
-0.055
-0.065
-0.075
-0.06
-0.075
-0.08
-0.09
-0.075
-0.09
-0.08
-0.09
-0.09
-0.09
-0.085
-0.09
-0.095
-0.08
-0.095
-0.095
-0.075
-0.08
-0.07
-0.06
-0.055
-0.06
-0.05
-0.055
-0.04
-0.055
-0.075
-0.075
-0.075
-0.07
-0.075
-0.065
-0.07
-0.085
-0.09
-0.11
-0.1
-0.08
-0.09
-0.08
-0.085
-0.075
-0.09
-0.08
-0.015
0.235
0.52
0.675
0.31
-0.3
-0.44
-0.315
-0.155
-0.13
-0.135
-0.14
-0.13
-0.11
-0.125
-0.125
-0.125
-0.135
-0.125
-0.12
-0.135
-0.145
-0.135
-0.145
-0.145
-0.135
-0.13
-0.135
-0.14
-0.13
-0.14
-0.125
-0.13
-0.115
-0.105
-0.1
-0.09
-0.08
-0.065
-0.055
-0.04
-0.03
-0.02
-0.03
-0.02
-0.015
-0.025
-0.03
-0.04
-0.03
-0.035
-0.04
-0.055
-0.065
-0.06
-0.045
-0.055
-0.04
-0.045
-0.055
-0.05
-0.045
-0.055
-0.06
-0.05
-0.045
-0.05
-0.045
-0.045
-0.04
-0.035
-0.03
-0.04
-0.035
-0.045
-0.03
-0.03
-0.035
-0.055
-0.055
-0.06
-0.075
-0.075
-0.07
-0.07
-0.085
-0.09
-0.08
-0.08
-0.08
-0.09
-0.085
-0.09
-0.09
-0.09
-0.075
-0.075
-0.08
-0.08
-0.07
-0.05
-0.045
-0.045
-0.04
-0.045
-0.065
-0.075
-0.075
-0.06
-0.055
-0.065
-0.055
-0.065
-0.07
-0.08
-0.09
-0.085
-0.08
-0.08
-0.085
-0.085
-0.085
-0.085
-0.105
-0.06
0.165
0.49
0.755
0.6
-0.06
-0.42
-0.405
-0.25
-0.17
-0.16
-0.16
-0.165
-0.15
-0.17
-0.15
-0.16
-0.16
-0.155
-0.16
-0.16
-0.165
-0.165
-0.16
-0.16
-0.145
-0.155
-0.15
-0.15
-0.145
-0.15
-0.14
-0.15
-0.14
-0.13
-0.12
-0.11
-0.1
-0.09
-0.075
-0.07
-0.07
-0.065
-0.06
-0.03
-0.035
-0.025
-0.035
-0.045
-0.055
-0.05
-0.075
-0.08
-0.07
-0.06
-0.055
-0.06
-0.06
-0.055
-0.06
-0.06
-0.065
-0.05
-0.05
-0.055
-0.05
-0.04
-0.03
-0.025
-0.025
-0.025
-0.02
-0.025
-0.02
-0.03
-0.015
-0.015
-0.015
-0.02
-0.035
-0.035
-0.03
-0.025
-0.035
-0.045
-0.06
-0.06
-0.05
-0.06
-0.05
-0.065
-0.06
-0.055
-0.06
-0.07
-0.05
-0.05
-0.055
-0.065
-0.06
-0.045
-0.04
-0.04
-0.035
-0.035
-0.045
-0.05
-0.055
-0.045
-0.05
-0.05
-0.045
-0.035
-0.03
-0.055
-0.065
-0.06
-0.06
-0.065
-0.06
-0.065
-0.06
-0.06
-0.075
-0.08
0.005
0.255
0.56
0.725
0.32
-0.29
-0.39
-0.305
-0.155
-0.12
-0.115
-0.12
-0.11
-0.125
-0.125
-0.12
-0.135
-0.11
-0.115
-0.115
-0.14
-0.135
-0.125
-0.14
-0.13
-0.125
-0.12
-0.13
-0.135
-0.11
-0.12
-0.115
-0.105
-0.09
-0.09
-0.07
-0.075
-0.06
-0.05
-0.03
-0.025
-0.025
-0.02
-0.005
-0.005
0.01
0.0
-0.005
-0.03
-0.02
-0.02
-0.035
-0.045
-0.035
-0.025
-0.04
-0.035
-0.04
-0.035
-0.03
-0.05
-0.03
-0.04
-0.03
-0.025
-0.025
-0.025
-0.015
-0.01
0.0
0.0
0.0
0.01
0.005
0.0
0.0
0.0
-0.01
-0.015
-0.005
-0.015
-0.02
-0.025
-0.03
-0.025
-0.04
-0.035
-0.03
-0.02
-0.04
-0.035
-0.035
-0.025
-0.03
-0.04
-0.03
-0.04
-0.04
-0.025
-0.015
-0.005
-0.01
-0.015
-0.01
-0.03
-0.035
-0.045
-0.035
-0.035
-0.04
-0.04
-0.04
-0.04
-0.04
-0.045
-0.05
-0.055
-0.055
-0.055
-0.05
-0.055
-0.05
-0.06
-0.055
0.115
0.44
0.73
0.715
0.125
-0.355
-0.395
-0.255
-0.135
-0.105
-0.11
-0.13
-0.125
-0.115
-0.12
-0.12
-0.13
-0.115
-0.13
-0.135
-0.14
-0.15
-0.15
-0.15
-0.15
-0.15
-0.145
-0.15
-0.155
-0.14
-0.13
-0.125
-0.13
-0.12
-0.11
-0.1
-0.105
-0.095
-0.085
-0.07
-0.065
-0.04
-0.035
-0.03
-0.025
-0.015
-0.025
-0.03
-0.035
-0.03
-0.045
-0.04
-0.035
-0.05
-0.04
-0.05
-0.05
-0.055
-0.04
-0.055
-0.055
-0.06
-0.04
-0.06
-0.045
-0.05
-0.03
-0.025
-0.05
-0.035
-0.04
-0.035
-0.04
-0.015
-0.025
-0.025
-0.03
-0.02
-0.045
-0.045
-0.055
-0.055
-0.065
-0.07
-0.09
-0.085
-0.085
-0.09
-0.1
-0.09
-0.08
-0.105
-0.11
-0.115
-0.11
-0.1
-0.1
-0.105
-0.12
-0.12
-0.105
-0.095
-0.1
-0.105
-0.1
-0.115
-0.125
-0.135
-0.12
-0.13
-0.135
-0.135
-0.135
-0.145
-0.165
-0.16
-0.165
-0.18
-0.185
-0.19
-0.19
-0.19
-0.19
-0.205
-0.2
-0.095
0.205
0.51
0.61
0.12
-0.455
-0.545
-0.45
-0.31
-0.285
-0.29
-0.285
-0.28
-0.285
-0.285
-0.29
-0.29
-0.3
-0.295
-0.31
-0.32
-0.325
-0.335
-0.325
-0.33
-0.345
-0.335
-0.35
-0.345
-0.36
-0.355
-0.345
-0.35
-0.335
-0.335
-0.34
-0.335
-0.33
-0.325
-0.305
-0.3
-0.3
-0.295
-0.275
-0.265
-0.275
-0.29
-0.295
-0.285
-0.305
-0.32
-0.32
-0.325
-0.325
-0.325
-0.33
-0.34
-0.32
-0.335
-0.33
-0.335
-0.34
-0.34
-0.345
-0.345
-0.345
-0.33
-0.33
-0.335
-0.335
-0.34
-0.34
-0.335
-0.33
-0.335
-0.325
-0.335
-0.33
-0.34
-0.34
-0.335
-0.355
-0.37
-0.36
-0.36
-0.365
-0.36
-0.365
-0.375
-0.385
-0.385
-0.37
-0.395
-0.395
-0.39
-0.375
-0.375
-0.37
-0.365
-0.35
-0.36
-0.35
-0.355
-0.35
-0.36
-0.375
-0.375
-0.36
-0.375
-0.38
-0.375
-0.37
-0.39
-0.405
-0.41
-0.415
-0.41
-0.405
-0.4
-0.4
-0.39
-0.395
-0.4
-0.34
-0.065
0.255
0.42
0.01
-0.595
-0.76
-0.655
-0.52
-0.475
-0.47
-0.475
-0.48
-0.48
-0.495
-0.48
-0.48
-0.49
-0.485
-0.49
-0.485
-0.485
-0.48
-0.48
-0.5
-0.495
-0.505
-0.5
-0.5
-0.5
-0.505
-0.5
-0.51
-0.51
-0.505
-0.5
-0.49
-0.475
-0.455
-0.45
-0.435
-0.425
-0.41
-0.395
-0.405
-0.405
-0.41
-0.4
-0.41
-0.405
-0.42
-0.425
-0.415
-0.425
-0.42
-0.42
-0.415
-0.4
-0.4
-0.395
-0.38
-0.38
-0.385
-0.385
-0.375
-0.375
-0.365
-0.375
-0.36
-0.37
-0.355
-0.35
-0.35
-0.355
-0.355
-0.355
-0.36
-0.37
-0.355
-0.355
-0.34
-0.345
-0.35
-0.35
-0.345
-0.335
-0.345
-0.345
-0.355
-0.35
-0.35
-0.35
-0.365
-0.345
-0.365
-0.35
-0.345
-0.34
-0.35
-0.345
-0.335
-0.325
-0.315
-0.31
-0.305
-0.295
-0.3
-0.305
-0.315
-0.315
-0.32
-0.32
-0.31
-0.31
-0.315
-0.32
-0.325
-0.34
-0.325
-0.335
-0.32
-0.315
-0.315
-0.305
-0.325
-0.315
-0.16
0.16
0.485
0.52
-0.01
-0.53
-0.585
-0.49
-0.37
-0.34
-0.335
-0.35
-0.35
-0.345
-0.34
-0.33
-0.32
-0.32
-0.315
-0.31
-0.33
-0.315
-0.32
-0.325
-0.325
-0.32
-0.32
-0.315
-0.32
-0.315
-0.31
-0.3
-0.295
-0.295
-0.29
-0.28
-0.265
-0.245
-0.245
-0.23
-0.23
-0.2
-0.19
-0.17
-0.165
-0.16
-0.175
-0.175
-0.175
-0.175
-0.175
-0.18
-0.175
-0.175
-0.185
-0.17
-0.16
-0.155
-0.15
-0.145
-0.145
-0.145
-0.135
-0.115
-0.115
-0.11
-0.105
-0.12
-0.115
-0.1
-0.1
-0.1
-0.095
-0.09
-0.1
-0.1
-0.095
-0.095
-0.075
-0.085
-0.085
-0.08
-0.075
-0.06
-0.07
-0.07
-0.08
-0.08
-0.085
-0.08
-0.085
-0.075
-0.075
-0.07
-0.07
-0.065
-0.065
-0.06
-0.05
-0.03
-0.025
-0.01
-0.02
-0.005
-0.005
-0.02
-0.03
-0.03
-0.04
-0.035
-0.025
-0.02
-0.03
-0.045
-0.045
-0.055
-0.045
-0.06
-0.04
-0.03
-0.025
-0.025
-0.02
0.0
0.19
0.52
0.77
0.57
-0.06
-0.34
-0.3
-0.14
-0.07
-0.07
-0.06
-0.07
-0.065
-0.055
-0.07
-0.06
-0.065
-0.05
-0.05
-0.07
-0.055
-0.06
-0.065
-0.06
-0.055
-0.065
-0.06
-0.055
-0.055
-0.07
-0.055
-0.045
-0.045
-0.035
-0.035
-0.015
-0.01
0.005
0.0
0.015
0.025
0.05
0.045
0.065
0.07
0.07
0.065
0.055
0.06
0.055
0.045
0.04
0.04
0.045
0.055
0.045
0.055
0.055
0.055
0.06
0.075
0.07
0.075
0.09
0.075
0.09
0.075
0.09
0.095
0.11
0.105
0.11
0.1
0.1
0.1
0.11
0.105
0.1
0.1
0.105
0.105
0.1
0.1
0.095
0.09
0.105
0.09
0.095
0.095
0.09
0.085
0.09
0.09
0.085
0.085
0.09
0.09
0.11
0.105
0.12
0.145
0.135
0.12
0.13
0.13
0.11
0.105
0.105
0.11
0.105
0.11
0.11
0.125
0.1
0.085
0.075
0.075
0.08
0.08
0.085
0.085
0.08
0.07
0.075
0.245
0.585
0.905
0.875
0.24
-0.235
-0.25
-0.115
-0.005
0.005
-0.005
0.0
0.0
0.0
0.0
0.0
0.005
0.0
-0.005
-0.01
-0.015
-0.005
-0.015
-0.015
-0.025
-0.035
-0.025
-0.025
-0.02
-0.02
-0.01
-0.01
-0.01
-0.01
0.0
0.005
0.01
0.02
0.035
0.045
0.055
0.07
0.075
0.09
0.09
0.085
0.075
0.08
0.075
0.065
0.055
0.065
0.05
0.045
0.04
0.05
0.06
0.06
0.055
0.05
0.07
0.065
0.065
0.075
0.075
0.065
0.07
0.08
0.09
0.095
0.095
0.085
0.08
0.09
0.09
0.1
0.1
0.095
0.095
0.09
0.09
0.085
0.085
0.08
0.08
0.08
0.06
0.065
0.075
0.055
0.07
0.06
0.07
0.07
0.065
0.06
0.07
0.085
0.09
0.11
0.105
0.105
0.11
0.115
0.105
0.09
0.095
0.085
0.09
0.1
0.1
0.095
0.085
0.065
0.055
0.06
0.065
0.07
0.07
0.07
0.07
0.075
0.06
0.095
0.335
0.645
0.845
0.525
-0.09
-0.27
-0.185
-0.04
0.01
0.015
0.0
0.0
0.0
0.0
0.01
0.015
0.015
0.02
0.005
0.005
0.005
0.0
0.0
-0.015
-0.01
-0.015
0.0
0.0
0.0
0.0
-0.005
0.005
0.0
0.005
0.005
0.025
0.045
0.05
0.055
0.06
0.09
0.09
0.105
0.11
0.105
0.085
0.09
0.09
0.075
0.07
0.06
0.06
0.055
0.05
0.055
0.05
0.075
0.085
0.08
0.08
0.085
0.095
0.085
0.09
0.105
0.095
0.095
0.105
0.115
0.12
0.12
0.12
0.11
0.12
0.12
0.115
0.115
0.115
0.11
0.105
0.115
0.11
0.1
0.095
0.09
0.095
0.095
0.08
0.07
0.075
0.08
0.08
0.075
0.085
0.08
0.075
0.085
0.1
0.115
0.12
0.13
0.12
0.125
0.115
0.1
0.115
0.115
0.1
0.095
0.095
0.105
0.105
0.09
0.075
0.08
0.095
0.08
0.08
0.09
0.08
0.08
0.07
0.185
0.47
0.805
0.925
0.465
-0.13
-0.27
-0.165
-0.01
0.01
0.0
0.0
0.0
0.0
0.0
-0.005
-0.01
-0.015
-0.01
-0.015
-0.015
-0.02
-0.02
-0.02
-0.02
-0.015
-0.02
-0.02
-0.03
-0.02
-0.02
-0.02
-0.02
-0.015
-0.005
0.0
-0.005
0.0
0.01
0.035
0.04
0.06
0.075
0.085
0.085
0.09
0.08
0.075
0.07
0.04
0.04
0.035
0.03
0.04
0.04
0.045
0.035
0.04
0.04
0.05
0.06
0.055
0.065
0.065
0.075
0.08
0.08
0.095
0.09
0.09
0.1
0.09
0.09
0.105
0.1
0.09
0.095
0.09
0.09
0.09
0.105
0.11
0.095
0.1
0.095
0.095
0.085
0.09
0.085
0.08
0.09
0.075
0.085
0.08
0.09
0.08
0.085
0.075
0.07
0.09
0.125
0.115
0.115
0.13
0.115
0.11
0.115
0.12
0.125
0.125
0.11
0.115
0.105
0.1
0.075
0.075
0.075
0.08
0.075
0.095
0.085
0.075
0.07
0.09
0.215
0.49
0.775
0.8
0.275
-0.19
-0.215
-0.09
0.01
0.03
0.02
0.02
0.025
0.025
0.025
0.02
0.025
0.015
0.02
0.015
0.02
0.02
0.015
0.03
0.03
0.02
0.015
0.03
0.02
0.025
0.025
0.015
0.035
0.015
0.05
0.04
0.055
0.05
0.075
0.085
0.1
0.115
0.12
0.115
0.145
0.135
0.13
0.12
0.115
0.1
0.095
0.095
0.095
0.1
0.075
0.1
0.085
0.11
0.09
0.09
0.115
0.11
0.105
0.115
0.115
0.13
0.13
0.125
0.13
0.125
0.13
0.145
0.14
0.145
0.145
0.135
0.145
0.125
0.135
0.13
0.125
0.135
0.145
0.145
0.145
0.13
0.14
0.145
0.13
0.135
0.125
0.12
0.12
0.12
0.135
0.125
0.125
0.13
0.15
0.16
0.15
0.155
0.17
0.155
0.14
0.125
0.135
0.12
0.135
0.12
0.13
0.13
0.115
0.105
0.1
0.095
0.105
0.105
0.11
0.105
0.105
0.095
0.115
0.28
0.6
0.915
0.815
0.17
-0.22
-0.215
-0.05
0.03
0.04
0.03
0.035
0.04
0.03
0.03
0.03
0.015
0.01
0.025
0.03
0.03
0.04
0.02
0.02
0.01
0.02
0.02
0.01
0.005
0.015
0.005
0.025
0.025
0.025
0.035
0.04
0.045
0.065
0.06
0.085
0.09
0.11
0.11
0.11
0.125
0.12
0.105
0.115
0.085
0.09
0.065
0.085
0.07
0.075
0.08
0.08
0.08
0.07
0.08
0.085
0.095
0.095
0.095
0.105
0.105
0.115
0.115
0.125
0.12
0.115
0.11
0.115
0.115
0.115
0.12
0.105
0.115
0.105
0.11
0.11
0.12
0.115
0.12
0.115
0.13
0.125
0.125
0.13
0.115
0.12
0.12
0.11
0.12
0.12
0.13
0.115
0.125
0.125
0.14
0.14
0.165
0.175
0.165
0.165
0.15
0.145
0.15
0.145
0.145
0.145
0.15
0.135
0.13
0.115
0.11
0.115
0.115
0.115
0.115
0.12
0.11
0.12
0.11
0.145
0.355
0.66
0.92
0.735
0.09
-0.215
-0.18
-0.025
0.045
0.05
0.04
0.05
0.045
0.04
0.035
0.045
0.045
0.04
0.04
0.04
0.05
0.055
0.035
0.045
0.035
0.035
0.03
0.03
0.025
0.02
0.01
0.03
0.04
0.04
0.04
0.04
0.06
0.07
0.075
0.085
0.11
0.14
0.125
0.14
0.145
0.135
0.13
0.13
0.12
0.1
0.1
0.09
0.07
0.065
0.09
0.085
0.085
0.075
0.08
0.085
0.115
0.105
0.105
0.115
0.12
0.115
0.12
0.135
0.135
0.14
0.135
0.12
0.13
0.135
0.13
0.135
0.115
0.135
0.125
0.13
0.13
0.14
0.14
0.135
0.145
0.13
0.13
0.125
0.13
0.11
0.125
0.125
0.125
0.125
0.115
0.13
0.145
0.145
0.15
0.17
0.165
0.175
0.19
0.18
0.17
0.17
0.175
0.18
0.165
0.155
0.17
0.15
0.145
0.14
0.13
0.13
0.125
0.125
0.135
0.125
0.12
0.115
0.13
0.24
0.53
0.835
0.87
0.34
-0.185
-0.25
-0.105
0.035
0.05
0.05
0.035
0.045
0.04
0.035
0.025
0.025
0.015
0.025
0.015
0.015
0.01
0.0
0.0
0.01
0.005
-0.005
-0.01
-0.005
-0.015
-0.02
-0.005
-0.005
-0.005
-0.005
0.0
-0.005
0.005
0.02
0.02
0.04
0.06
0.07
0.07
0.07
0.075
0.065
0.06
0.04
0.025
0.025
0.015
0.03
0.025
0.01
0.0
0.005
0.0
0.01
0.01
0.005
0.015
0.02
0.015
0.01
0.01
0.01
0.02
0.015
0.015
0.015
0.02
0.005
0.0
-0.015
-0.01
-0.03
-0.02
-0.02
-0.02
-0.03
-0.025
-0.03
-0.035
-0.035
-0.05
-0.065
-0.055
-0.06
-0.065
-0.075
-0.075
-0.09
-0.09
-0.09
-0.095
-0.1
-0.09
-0.105
-0.09
-0.07
-0.07
-0.075
-0.06
-0.08
-0.085
-0.095
-0.1
-0.09
-0.105
-0.11
-0.115
-0.125
-0.13
-0.135
-0.145
-0.16
-0.17
-0.165
-0.17
-0.17
-0.175
-0.18
-0.165
-0.07
0.225
0.54
0.66
0.21
-0.37
-0.5
-0.415
-0.295
-0.255
-0.275
-0.275
-0.28
-0.285
-0.28
-0.29
-0.29
-0.295
-0.285
-0.295
-0.29
-0.29
-0.305
-0.305
-0.31
-0.315
-0.32
-0.32
-0.32
-0.33
-0.335
-0.335
-0.32
-0.33
-0.335
-0.33
-0.325
-0.335
-0.32
-0.315
-0.31
-0.295
-0.28
-0.28
-0.27
-0.275
-0.285
-0.285
-0.3
-0.32
-0.33
-0.325
-0.33
-0.335
-0.34
-0.32
-0.35
-0.345
-0.34
-0.34
-0.345
-0.33
-0.325
-0.32
-0.33
-0.315
-0.32
-0.31
-0.315
-0.31
-0.32
-0.315
-0.325
-0.305
-0.32
-0.315
-0.33
-0.335
-0.34
-0.345
-0.35
-0.345
-0.345
-0.345
-0.335
-0.33
-0.335
-0.33
-0.32
-0.325
-0.34
-0.34
-0.345
-0.345
-0.33
-0.35
-0.32
-0.32
-0.315
-0.305
-0.295
-0.295
-0.295
-0.28
-0.28
-0.295
-0.28
-0.275
-0.27
-0.28
-0.275
-0.265
-0.28
-0.28
-0.29
-0.29
-0.315
-0.305
-0.29
-0.29
-0.3
-0.285
-0.3
-0.295
-0.225
0.025
0.385
0.54
0.11
-0.495
-0.61
-0.49
-0.345
-0.31
-0.305
-0.31
-0.305
-0.31
-0.31
-0.315
-0.32
-0.31
-0.33
-0.325
-0.33
-0.34
-0.33
-0.32
-0.315
-0.315
-0.31
-0.31
-0.32
-0.325
-0.325
-0.32
-0.32
-0.325
-0.32
-0.31
-0.31
-0.29
-0.305
-0.29
-0.27
-0.265
-0.26
-0.25
-0.235
-0.24
-0.23
-0.235
-0.245
-0.245
-0.26
-0.26
-0.27
-0.27
-0.275
-0.285
-0.27
-0.285
-0.285
-0.285
-0.27
-0.28
-0.28
-0.28
-0.265
-0.245
-0.245
-0.235
-0.255
-0.245
-0.245
-0.245
-0.255
-0.265
-0.26
-0.27
-0.285
-0.275
-0.29
-0.295
-0.305
-0.3
-0.315
-0.31
-0.33
-0.32
-0.315
-0.33
-0.32
-0.335
-0.335
-0.34
-0.345
-0.35
-0.345
-0.355
-0.355
-0.355
-0.365
-0.37
-0.35
-0.345
-0.345
-0.36
-0.355
-0.365
-0.375
-0.37
-0.36
-0.36
-0.355
-0.35
-0.36
-0.355
-0.375
-0.405
-0.395
-0.405
-0.4
-0.415
-0.415
-0.42
-0.415
-0.43
-0.41
-0.24
0.1
0.42
0.355
-0.3
-0.72
-0.715
-0.58
-0.5
-0.5
-0.5
-0.53
-0.525
-0.525
-0.53
-0.53
-0.54
-0.56
-0.55
-0.58
-0.58
-0.58
-0.59
-0.585
-0.6
-0.595
-0.6
-0.6
-0.59
-0.595
-0.58
-0.59
-0.585
-0.6
-0.585
-0.59
-0.58
-0.58
-0.57
-0.565
-0.56
-0.55
-0.555
-0.545
-0.545
-0.55
-0.55
-0.565
-0.57
-0.58
-0.57
-0.58
-0.58
-0.57
-0.585
-0.595
-0.6
-0.59
-0.59
-0.59
-0.595
-0.59
-0.59
-0.595
-0.6
-0.59
-0.585
-0.59
-0.59
-0.59
-0.575
-0.585
-0.58
-0.575
-0.575
-0.575
-0.58
-0.595
-0.585
-0.585
-0.585
-0.585
-0.6
-0.59
-0.595
-0.59
-0.6
-0.59
-0.6
-0.6
-0.6
-0.6
-0.605
-0.595
-0.585
-0.58
-0.58
-0.575
-0.565
-0.555
-0.555
-0.54
-0.555
-0.535
-0.56
-0.57
-0.55
-0.555
-0.53
-0.55
-0.545
-0.545
-0.56
-0.555
-0.56
-0.555
-0.54
-0.53
-0.54
-0.52
-0.53
-0.53
-0.52
-0.43
-0.16
0.14
0.28
-0.205
-0.775
-0.845
-0.745
-0.6
-0.56
-0.55
-0.56
-0.565
-0.565
-0.565
-0.56
-0.555
-0.545
-0.54
-0.555
-0.545
-0.545
-0.55
-0.535
-0.535
-0.555
-0.55
-0.535
-0.54
-0.535
-0.535
-0.53
-0.52
-0.515
-0.51
-0.485
-0.48
-0.465
-0.45
-0.45
-0.425
-0.425
-0.42
-0.39
-0.395
-0.385
-0.385
-0.39
-0.375
-0.395
-0.395
-0.4
-0.405
-0.405
-0.395
-0.4
-0.41
-0.39
-0.385
-0.37
-0.375
-0.37
-0.355
-0.355
-0.345
-0.345
-0.335
-0.335
-0.33
-0.315
-0.315
-0.315
-0.305
-0.31
-0.31
-0.305
-0.3
-0.3
-0.3
-0.3
-0.28
-0.285
-0.28
-0.285
-0.275
-0.275
-0.275
-0.27
-0.265
-0.27
-0.27
-0.255
-0.255
-0.26
-0.255
-0.245
-0.245
-0.245
-0.245
-0.22
-0.205
-0.2
-0.18
-0.185
-0.185
-0.205
-0.2
-0.19
-0.19
-0.18
-0.18
-0.18
-0.18
-0.19
-0.19
-0.19
-0.205
-0.205
-0.2
-0.195
-0.195
-0.195
-0.2
-0.19
-0.09
0.215
0.555
0.73
0.27
-0.34
-0.465
-0.4
-0.255
-0.225
-0.235
-0.245
-0.24
-0.235
-0.245
-0.245
-0.245
-0.245
-0.255
-0.255
-0.245
-0.24
-0.235
-0.24
-0.235
-0.235
-0.235
-0.225
-0.24
-0.24
-0.235
-0.235
-0.23
-0.23
-0.23
-0.23
-0.23
-0.205
-0.2
-0.19
-0.185
-0.165
-0.15
-0.13
-0.13
-0.12
-0.14
-0.145
-0.14
-0.155
-0.145
-0.16
-0.165
-0.185
-0.195
-0.185
-0.19
-0.19
-0.2
-0.185
-0.18
-0.19
-0.18
-0.17
-0.175
-0.155
-0.14
-0.145
-0.13
-0.15
-0.155
-0.14
-0.145
-0.15
-0.14
-0.15
-0.15
-0.15
-0.155
-0.165
-0.155
-0.155
-0.16
-0.16
-0.16
-0.145
-0.15
-0.16
-0.145
-0.145
-0.15
-0.15
-0.145
-0.135
-0.135
-0.135
-0.125
-0.135
-0.145
-0.14
-0.105
-0.12
-0.12
-0.115
-0.12
-0.135
-0.13
-0.125
-0.12
-0.12
-0.115
-0.095
-0.095
-0.105
-0.12
-0.12
-0.11
-0.115
-0.115
-0.11
-0.105
-0.11
-0.11
-0.11
0.0
0.285
0.6
0.695
0.21
-0.335
-0.4
-0.29
-0.14
-0.115
-0.11
-0.115
-0.125
-0.115
-0.11
-0.105
-0.125
-0.11
-0.12
-0.125
-0.14
-0.135
-0.12
-0.145
-0.13
-0.13
-0.12
-0.12
-0.125
-0.12
-0.12
-0.095
-0.09
-0.09
-0.08
-0.075
-0.065
-0.065
-0.045
-0.04
-0.03
-0.03
-0.015
0.0
0.0
0.005
0.0
0.01
0.015
0.0
-0.01
0.0
-0.015
-0.005
-0.01
0.0
-0.005
-0.01
-0.005
-0.01
0.0
0.0
0.0
-0.005
-0.01
-0.005
0.0
0.005
0.01
0.01
0.015
0.0
0.015
0.01
0.025
0.02
0.01
0.02
0.01
0.015
0.02
0.015
0.01
0.01
0.0
0.0
0.0
0.0
0.005
0.0
0.0
0.0
0.0
0.0
-0.005
-0.005
0.0
0.01
0.01
0.03
0.04
0.05
0.03
0.04
0.05
0.035
0.025
0.035
0.035
0.04
0.045
0.035
0.03
0.035
0.015
0.01
0.005
0.015
0.03
0.035
0.045
0.05
0.035
0.07
0.26
0.615
0.93
0.84
0.18
-0.235
-0.255
-0.12
0.0
0.0
-0.01
-0.005
-0.01
-0.015
-0.005
-0.005
0.015
0.005
0.01
0.005
0.005
0.0
0.0
0.005
0.01
0.0
-0.005
0.0
0.0
0.0
-0.005
0.0
0.005
0.02
0.02
0.02
0.025
0.055
0.075
0.095
0.11
0.12
0.135
0.145
0.145
0.155
0.15
0.125
0.13
0.12
0.12
0.115
0.12
0.125
0.125
0.12
0.13
0.125
0.145
0.135
0.145
0.155
0.17
0.165
0.165
0.17
0.175
0.18
0.17
0.17
0.17
0.17
0.18
0.17
0.165
0.175
0.165
0.165
0.165
0.175
0.175
0.185
0.175
0.17
0.17
0.175
0.175
0.19
0.155
0.17
0.175
0.17
0.18
0.18
0.18
0.175
0.18
0.21
0.205
0.22
0.225
0.23
0.235
0.205
0.21
0.225
0.225
0.22
0.22
0.245
0.235
0.22
0.19
0.21
0.21
0.21
0.215
0.22
0.23
0.23
0.215
0.26
0.44
0.755
1.04
0.92
0.29
-0.055
-0.04
0.1
0.195
0.205
0.21
0.21
0.215
0.215
0.215
0.215
0.215
0.21
0.225
0.225
0.235
0.215
0.245
0.24
0.24
0.25
0.25
0.25
0.245
0.25
0.245
0.235
0.245
0.255
0.26
0.26
0.285
0.3
0.3
0.315
0.32
0.355
0.38
0.39
0.39
0.395
0.39
0.375
0.38
0.375
0.355
0.355
0.345
0.35
0.345
0.355
0.345
0.345
0.34
0.355
0.355
0.37
0.375
0.38
0.38
0.385
0.4
0.395
0.4
0.39
0.405
0.385
0.39
0.39
0.385
0.385
0.39
0.385
0.38
0.385
0.37
0.36
0.37
0.38
0.375
0.375
0.38
0.38
0.38
0.365
0.37
0.375
0.37
0.36
0.345
0.35
0.36
0.37
0.385
0.39
0.385
0.385
0.38
0.39
0.38
0.39
0.385
0.385
0.38
0.385
0.375
0.38
0.365
0.35
0.345
0.335
0.33
0.335
0.35
0.35
0.355
0.335
0.355
0.525
0.865
1.17
1.105
0.475
0.015
0.0
0.165
0.285
0.295
0.3
0.285
0.29
0.285
0.29
0.295
0.29
0.285
0.275
0.28
0.28
0.28
0.3
0.3
0.29
0.275
0.29
0.275
0.305
0.275
0.27
0.28
0.265
0.275
0.285
0.29
0.295
0.305
0.305
0.325
0.34
0.36
0.39
0.38
0.39
0.395
0.39
0.385
0.38
0.375
0.365
0.37
0.355
0.335
0.355
0.35
0.35
0.345
0.355
0.35
0.35
0.345
0.36
0.36
0.36
0.37
0.38
0.38
0.385
0.375
0.38
0.38
0.375
0.37
0.375
0.37
0.355
0.35
0.345
0.355
0.345
0.335
0.335
0.34
0.35
0.335
0.335
0.33
0.33
0.33
0.325
0.33
0.33
0.315
0.325
0.3
0.32
0.315
0.33
0.35
0.34
0.34
0.36
0.36
0.345
0.34
0.345
0.345
0.34
0.34
0.345
0.345
0.32
0.295
0.29
0.29
0.295
0.29
0.295
0.305
0.295
0.28
0.295
0.42
0.71
1.005
1.06
0.545
0.01
-0.04
0.075
0.225
0.235
0.23
0.22
0.225
0.24
0.235
0.225
0.24
0.215
0.22
0.215
0.225
0.225
0.235
0.235
0.225
0.23
0.225
0.225
0.22
0.225
0.225
0.23
0.235
0.24
0.23
0.245
0.26
0.265
0.255
0.27
0.29
0.31
0.315
0.325
0.325
0.32
0.315
0.3
0.305
0.28
0.28
0.27
0.26
0.265
0.265
0.265
0.26
0.26
0.255
0.26
0.275
0.275
0.27
0.28
0.29
0.28
0.285
0.285
0.29
0.29
0.285
0.28
0.275
0.28
0.275
0.265
0.275
0.27
0.26
0.26
0.255
0.26
0.265
0.25
0.26
0.25
0.245
0.25
0.24
0.24
0.23
0.23
0.22
0.21
0.21
0.22
0.225
0.23
0.24
0.235
0.25
0.25
0.255
0.24
0.235
0.24
0.25
0.245
0.245
0.24
0.24
0.22
0.205
0.2
0.2
0.195
0.205
0.195
0.195
0.195
0.195
0.19
0.3
0.58
0.865
0.9
0.345
-0.145
-0.16
-0.005
0.13
0.145
0.14
0.125
0.135
0.13
0.13
0.12
0.135
0.13
0.12
0.11
0.12
0.11
0.12
0.12
0.105
0.105
0.105
0.105
0.105
0.1
0.105
0.1
0.085
0.09
0.1
0.105
0.105
0.115
0.125
0.135
0.14
0.16
0.165
0.19
0.185
0.175
0.17
0.165
0.155
0.14
0.135
0.12
0.115
0.105
0.105
0.095
0.095
0.1
0.09
0.085
0.085
0.09
0.105
0.115
0.115
0.11
0.12
0.115
0.12
0.12
0.115
0.105
0.095
0.085
0.095
0.08
0.07
0.07
0.065
0.05
0.06
0.05
0.03
0.035
0.035
0.035
0.025
0.01
0.0
0.0
-0.005
-0.015
-0.02
-0.03
-0.045
-0.045
-0.045
-0.05
-0.055
-0.04
-0.04
-0.06
-0.055
-0.04
-0.065
-0.08
-0.07
-0.085
-0.085
-0.095
-0.095
-0.105
-0.11
-0.14
-0.155
-0.165
-0.17
-0.17
-0.185
-0.18
-0.19
-0.2
-0.205
-0.13
0.095
0.46
0.65
0.265
-0.385
-0.565
-0.5
-0.35
-0.315
-0.315
-0.335
-0.345
-0.355
-0.37
-0.36
-0.375
-0.39
-0.405
-0.41
-0.41
-0.425
-0.44
-0.445
-0.425
-0.425
-0.45
-0.455
-0.455
-0.455
-0.465
-0.475
-0.47
-0.48
-0.485
-0.48
-0.48
-0.475
-0.47
-0.465
-0.445
-0.44
-0.44
-0.44
-0.425
-0.425
-0.42
-0.43
-0.44
-0.455
-0.475
-0.475
-0.48
-0.49
-0.495
-0.495
-0.51
-0.52
-0.52
-0.525
-0.525
-0.51
-0.51
-0.525
-0.52
-0.53
-0.525
-0.51
-0.5
-0.505
-0.5
-0.52
-0.515
-0.52
-0.525
-0.52
-0.52
-0.55
-0.55
-0.555
-0.56
-0.57
-0.585
-0.58
-0.58
-0.585
-0.585
-0.595
-0.58
-0.58
-0.595
-0.6
-0.6
-0.605
-0.61
-0.605
-0.605
-0.615
-0.595
-0.595
-0.61
-0.605
-0.595
-0.62
-0.615
-0.615
-0.62
-0.635
-0.63
-0.62
-0.62
-0.62
-0.625
-0.645
-0.64
-0.65
-0.655
-0.645
-0.66
-0.655
-0.64
-0.66
-0.645
-0.525
-0.23
0.07
0.09
-0.49
-0.94
-0.945
-0.825
-0.72
-0.715
-0.7
-0.685
-0.695
-0.695
-0.705
-0.705
-0.705
-0.7
-0.7
-0.71
-0.72
-0.725
-0.725
-0.72
-0.725
-0.715
-0.72
-0.73
-0.71
-0.705
-0.695
-0.69
-0.7
-0.685
-0.685
-0.675
-0.66
-0.66
-0.655
-0.64
-0.63
-0.62
-0.615
-0.585
-0.575
-0.575
-0.58
-0.585
-0.595
-0.6
-0.6
-0.585
-0.6
-0.6
-0.59
-0.6
-0.59
-0.59
-0.59
-0.59
-0.6
-0.605
-0.585
-0.58
-0.58
-0.58
-0.57
-0.56
-0.565
-0.56
-0.555
-0.56
-0.545
-0.55
-0.55
-0.54
-0.555
-0.555
-0.55
-0.555
-0.565
-0.56
-0.555
-0.57
-0.565
-0.565
-0.565
-0.565
-0.56
-0.57
-0.56
-0.575
-0.56
-0.56
-0.545
-0.545
-0.54
-0.55
-0.53
-0.515
-0.52
-0.52
-0.52
-0.53
-0.535
-0.52
-0.53
-0.52
-0.525
-0.52
-0.525
-0.515
-0.525
-0.54
-0.535
-0.525
-0.52
-0.52
-0.515
-0.525
-0.515
-0.515
-0.52
-0.375
-0.065
0.28
0.37
-0.165
-0.74
-0.825
-0.7
-0.575
-0.54
-0.555
-0.55
-0.55
-0.55
-0.55
-0.54
-0.54
-0.545
-0.54
-0.555
-0.545
-0.555
-0.55
-0.555
-0.55
-0.54
-0.545
-0.535
-0.545
-0.53
-0.52
-0.52
-0.515
-0.51
-0.49
-0.48
-0.46
-0.445
-0.44
-0.42
-0.415
-0.4
-0.405
-0.385
-0.365
-0.375
-0.37
-0.375
-0.37
-0.4
-0.39
-0.385
-0.385
-0.39
-0.39
-0.38
-0.385
-0.38
-0.375
-0.365
-0.36
-0.355
-0.345
-0.34
-0.34
-0.335
-0.335
-0.32
-0.305
-0.31
-0.3
-0.295
-0.29
-0.305
-0.29
-0.285
-0.28
-0.275
-0.275
-0.26
-0.275
-0.275
-0.26
-0.26
-0.255
-0.27
-0.26
-0.25
-0.255
-0.245
-0.235
-0.25
-0.245
-0.25
-0.215
-0.215
-0.21
-0.2
-0.185
-0.175
-0.17
-0.165
-0.165
-0.185
-0.195
-0.185
-0.18
-0.17
-0.185
-0.17
-0.17
-0.18
-0.195
-0.195
-0.18
-0.17
-0.17
-0.17
-0.16
-0.17
-0.16
-0.155
-0.045
0.22
0.535
0.665
0.24
-0.325
-0.435
-0.33
-0.185
-0.155
-0.16
-0.155
-0.14
-0.145
-0.13
-0.14
-0.13
-0.12
-0.13
-0.115
-0.12
-0.135
-0.14
-0.135
-0.14
-0.13
-0.11
-0.1
-0.12
-0.1
-0.105
-0.095
-0.09
-0.065
-0.05
-0.045
-0.035
-0.035
0.0
0.0
0.005
0.025
0.03
0.04
0.06
0.065
0.06
0.055
0.045
0.04
0.04
0.04
0.045
0.06
0.06
0.055
0.07
0.07
0.08
0.085
0.085
0.09
0.09
0.1
0.09
0.1
0.115
0.12
0.145
0.155
0.14
0.145
0.145
0.14
0.155
0.145
0.14
0.15
0.155
0.145
0.145
0.145
0.14
0.15
0.155
0.15
0.13
0.14
0.14
0.135
0.14
0.13
0.145
0.135
0.14
0.155
0.165
0.175
0.185
0.18
0.185
0.195
0.18
0.17
0.175
0.17
0.165
0.16
0.17
0.175
0.175
0.15
0.145
0.13
0.135
0.15
0.15
0.15
0.155
0.155
0.155
0.145
0.255
0.535
0.865
1.02
0.595
-0.05
-0.195
-0.085
0.06
0.095
0.095
0.085
0.08
0.09
0.1
0.095
0.09
0.085
0.09
0.095
0.085
0.09
0.085
0.085
0.09
0.07
0.075
0.08
0.06
0.075
0.07
0.07
0.085
0.085
0.1
0.105
0.11
0.135
0.135
0.165
0.175
0.2
0.21
0.21
0.23
0.24
0.225
0.21
0.205
0.2
0.2
0.2
0.205
0.21
0.195
0.205
0.2
0.205
0.205
0.215
0.225
0.225
0.23
0.24
0.245
0.25
0.27
0.26
0.26
0.26
0.275
0.26
0.27
0.27
0.275
0.28
0.275
0.265
0.26
0.255
0.26
0.27
0.26
0.265
0.25
0.26
0.26
0.255
0.25
0.25
0.25
0.24
0.255
0.245
0.26
0.255
0.245
0.24
0.25
0.26
0.285
0.3
0.29
0.295
0.3
0.285
0.285
0.28
0.28
0.285
0.285
0.27
0.275
0.26
0.26
0.25
0.24
0.245
0.235
0.245
0.245
0.245
0.255
0.25
0.345
0.585
0.885
1.065
0.725
0.09
-0.075
-0.005
0.155
0.19
0.185
0.18
0.19
0.19
0.19
0.175
0.18
0.165
0.17
0.18
0.19
0.195
0.19
0.195
0.18
0.19
0.185
0.185
0.195
0.19
0.17
0.17
0.185
0.185
0.195
0.2
0.215
0.215
0.225
0.25
0.255
0.27
0.285
0.28
0.305
0.3
0.295
0.29
0.285
0.285
0.28
0.265
0.26
0.26
0.255
0.25
0.265
0.275
0.27
0.275
0.275
0.27
0.285
0.305
0.31
0.31
0.32
0.335
0.32
0.335
0.325
0.33
0.33
0.33
0.32
0.315
0.325
0.32
0.325
0.325
0.31
0.32
0.31
0.33
0.315
0.31
0.315
0.315
0.31
0.3
0.305
0.295
0.305
0.3
0.29
0.28
0.295
0.295
0.295
0.31
0.33
0.31
0.32
0.325
0.315
0.3
0.315
0.315
0.315
0.3
0.31
0.305
0.285
0.275
0.26
0.25
0.25
0.26
0.25
0.25
0.25
0.245
0.245
0.27
0.47
0.785
1.05
0.87
0.22
-0.135
-0.075
0.095
0.165
0.17
0.165
0.15
0.155
0.14
0.14
0.145
0.14
0.14
0.125
0.12
0.115
0.125
0.115
0.125
0.125
0.125
0.12
0.115
0.12
0.125
0.12
0.115
0.115
0.13
0.11
0.125
0.125
0.145
0.14
0.165
0.17
0.185
0.19
0.19
0.2
0.215
0.21
0.2
0.195
0.175
0.175
0.165
0.16
0.155
0.16
0.15
0.15
0.155
0.15
0.15
0.16
0.155
0.155
0.165
0.16
0.16
0.17
0.165
0.17
0.165
0.175
0.175
0.17
0.17
0.18
0.17
0.15
0.145
0.145
0.155
0.155
0.155
0.155
0.15
0.14
0.145
0.14
0.14
0.145
0.155
0.15
0.155
0.15
0.13
0.135
0.15
0.13
0.115
0.12
0.11
0.12
0.14
0.145
0.145
0.15
0.135
0.125
0.12
0.125
0.135
0.14
0.14
0.135
0.13
0.11
0.11
0.1
0.09
0.095
0.08
0.07
0.075
0.075
0.07
0.07
0.19
0.475
0.795
0.895
0.4
-0.19
-0.25
-0.135
0.0
0.02
0.015
0.01
0.0
0.005
0.005
-0.005
-0.005
-0.005
-0.005
-0.015
-0.015
-0.02
-0.01
-0.02
-0.025
-0.025
-0.01
-0.01
-0.02
-0.01
-0.005
-0.01
-0.015
-0.005
0.0
0.0
0.0
-0.015
0.0
0.0
0.015
0.035
0.045
0.055
0.055
0.055
0.055
0.05
0.055
0.04
0.03
0.035
0.035
0.02
0.02
0.02
0.02
0.02
0.005
0.015
0.015
0.02
0.035
0.025
0.03
0.04
0.03
0.04
0.055
0.055
0.06
0.055
0.055
0.06
0.055
0.06
0.065
0.065
0.055
0.045
0.03
0.04
0.035
0.04
0.04
0.035
0.015
0.025
0.03
0.03
0.03
0.04
0.045
0.03
0.03
0.03
0.035
0.035
0.03
0.045
0.045
0.035
0.045
0.045
0.03
0.01
0.03
0.035
0.025
0.015
0.015
0.025
0.015
0.005
0.0
-0.005
-0.015
0.0
-0.01
-0.02
-0.03
-0.035
-0.04
0.015
0.26
0.57
0.74
0.33
-0.29
-0.445
-0.325
-0.16
-0.135
-0.13
-0.13
-0.125
-0.155
-0.155
-0.15
-0.17
-0.17
-0.185
-0.2
-0.2
-0.215
-0.235
-0.235
-0.245
-0.255
-0.26
-0.26
-0.265
-0.28
-0.285
-0.29
-0.29
-0.28
-0.28
-0.265
-0.265
-0.275
-0.27
-0.265
-0.255
-0.245
-0.235
-0.23
-0.24
-0.24
-0.245
-0.26
-0.255
-0.275
-0.275
-0.29
-0.3
-0.325
-0.32
-0.32
-0.31
-0.315
-0.325
-0.325
-0.335
-0.34
-0.33
-0.335
-0.33
-0.335
-0.33
-0.355
-0.345
-0.34
-0.355
-0.355
-0.365
-0.365
-0.38
-0.385
-0.395
-0.39
-0.405
-0.395
-0.395
-0.41
-0.42
-0.41
-0.435
-0.445
-0.44
-0.43
-0.43
-0.455
-0.45
-0.455
-0.465
-0.46
-0.465
-0.475
-0.485
-0.485
-0.49
-0.48
-0.495
-0.45
-0.45
-0.46
-0.45
-0.46
-0.475
-0.49
-0.49
-0.495
-0.485
-0.485
-0.5
-0.495
-0.51
-0.52
-0.545
-0.545
-0.54
-0.545
-0.555
-0.56
-0.545
-0.55
-0.555
-0.535
-0.345
-0.005
0.275
0.21
-0.435
-0.85
-0.855
-0.73
-0.64
-0.645
-0.655
-0.64
-0.66
-0.665
-0.66
-0.66
-0.665
-0.675
-0.68
-0.69
-0.68
-0.675
-0.695
-0.68
-0.675
-0.68
-0.685
-0.68
-0.685
-0.695
-0.685
-0.69
-0.69
-0.69
-0.685
-0.685
-0.685
-0.68
-0.665
-0.645
-0.64
-0.63
-0.625
-0.6
-0.58
-0.59
-0.585
-0.59
-0.605
-0.62
-0.62
-0.62
-0.625
-0.625
-0.635
-0.64
-0.635
-0.62
-0.635
-0.625
-0.625
-0.63
-0.62
-0.625
-0.605
-0.59
-0.595
-0.58
-0.575
-0.58
-0.585
-0.595
-0.585
-0.585
-0.575
-0.58
-0.585
-0.58
-0.58
-0.58
-0.59
-0.585
-0.58
-0.59
-0.595
-0.595
-0.575
-0.575
-0.555
-0.565
-0.56
-0.545
-0.55
-0.555
-0.54
-0.55
-0.55
-0.555
-0.555
-0.535
-0.525
-0.52
-0.53
-0.505
-0.505
-0.515
-0.52
-0.51
-0.52
-0.5
-0.49
-0.5
-0.48
-0.49
-0.505
-0.51
-0.515
-0.51
-0.515
-0.515
-0.51
-0.51
-0.505
-0.51
-0.44
-0.205
0.125
0.34
-0.025
-0.66
-0.81
-0.705
-0.55
-0.5
-0.5
-0.51
-0.495
-0.5
-0.5
-0.495
-0.505
-0.515
-0.5
-0.505
-0.485
-0.505
-0.505
-0.495
-0.485
-0.5
-0.495
-0.5
-0.48
-0.46
-0.465
-0.465
-0.455
-0.45
-0.445
-0.435
-0.435
-0.435
-0.43
-0.405
-0.4
-0.365
-0.37
-0.365
-0.36
-0.345
-0.34
-0.345
-0.34
-0.345
-0.35
-0.345
-0.355
-0.345
-0.355
-0.35
-0.355
-0.355
-0.345
-0.345
-0.355
-0.355
-0.335
-0.335
-0.325
-0.315
-0.31
-0.305
-0.29
-0.295
-0.305
-0.275
-0.275
-0.275
-0.27
-0.27
-0.265
-0.27
-0.265
-0.27
-0.27
-0.26
-0.28
-0.27
-0.265
-0.27
-0.255
-0.26
-0.265
-0.26
-0.25
-0.235
-0.24
-0.23
-0.22
-0.215
-0.225
-0.22
-0.215
-0.215
-0.2
-0.18
-0.17
-0.17
-0.165
-0.165
-0.17
-0.175
-0.15
-0.16
-0.155
-0.15
-0.14
-0.145
-0.14
-0.15
-0.15
-0.155
-0.145
-0.145
-0.14
-0.135
-0.12
-0.125
-0.14
-0.065
0.205
0.565
0.785
0.375
-0.275
-0.44
-0.355
-0.205
-0.16
-0.15
-0.155
-0.14
-0.135
-0.14
-0.14
-0.13
-0.135
-0.14
-0.14
-0.14
-0.14
-0.15
-0.145
-0.145
-0.14
-0.155
-0.14
-0.14
-0.15
-0.155
-0.135
-0.13
-0.11
-0.1
-0.1
-0.095
-0.08
-0.08
-0.06
-0.045
-0.03
-0.015
-0.015
0.0
0.0
0.005
0.005
0.005
0.0
0.0
0.0
0.0
-0.005
-0.005
0.0
0.0
0.0
0.01
0.005
0.02
0.01
0.005
0.025
0.03
0.03
0.04
0.04
0.055
0.07
0.065
0.07
0.075
0.075
0.07
0.07
0.075
0.085
0.085
0.095
0.08
0.08
0.08
0.07
0.09
0.085
0.085
0.08
0.07
0.065
0.07
0.095
0.105
0.09
0.08
0.1
0.09
0.1
0.11
0.125
0.13
0.15
0.155
0.155
0.15
0.16
0.15
0.145
0.14
0.15
0.145
0.15
0.15
0.16
0.16
0.15
0.135
0.13
0.13
0.14
0.15
0.155
0.155
0.155
0.145
0.17
0.35
0.65
0.915
0.84
0.22
-0.18
-0.14
0.0
0.11
0.125
0.12
0.105
0.11
0.11
0.11
0.115
0.115
0.115
0.125
0.125
0.11
0.11
0.12
0.125
0.115
0.125
0.11
0.125
0.1
0.105
0.1
0.115
0.115
0.11
0.115
0.135
0.135
0.14
0.15
0.165
0.18
0.185
0.19
0.2
0.215
0.215
0.21
0.195
0.2
0.19
0.17
0.17
0.175
0.16
0.16
0.17
0.15
0.145
0.16
0.16
0.17
0.175
0.18
0.2
0.19
0.19
0.2
0.195
0.19
0.21
0.195
0.195
0.18
0.185
0.19
0.18
0.18
0.175
0.17
0.175
0.165
0.155
0.155
0.155
0.165
0.17
0.17
0.165
0.165
0.165
0.16
0.16
0.17
0.145
0.16
0.15
0.16
0.155
0.16
0.17
0.19
0.18
0.19
0.19
0.19
0.195
0.185
0.19
0.195
0.185
0.19
0.19
0.2
0.18
0.155
0.14
0.145
0.145
0.16
0.16
0.16
0.145
0.125
0.16
0.32
0.66
0.955
0.895
0.28
-0.155
-0.17
-0.01
0.08
0.085
0.085
0.09
0.075
0.07
0.07
0.055
0.065
0.065
0.065
0.045
0.06
0.04
0.045
0.035
0.04
0.05
0.05
0.05
0.045
0.05
0.045
0.045
0.055
0.04
0.05
0.04
0.045
0.05
0.05
0.065
0.075
0.095
0.1
0.115
0.13
0.135
0.12
0.125
0.115
0.11
0.1
0.09
0.095
0.09
0.075
0.075
0.08
0.075
0.075
0.08
0.08
0.085
0.08
0.09
0.09
0.095
0.095
0.1
0.105
0.105
0.115
0.11
0.115
0.11
0.105
0.09
0.09
0.085
0.085
0.095
0.065
0.075
0.06
0.07
0.06
0.08
0.065
0.055
0.06
0.06
0.06
0.065
0.065
0.08
0.07
0.065
0.07
0.065
0.065
0.07
0.105
0.1
0.085
0.085
0.095
0.08
0.085
0.09
0.09
0.095
0.095
0.095
0.095
0.1
0.08
0.075
0.08
0.065
0.085
0.06
0.06
0.075
0.055
0.055
0.08
0.245
0.525
0.785
0.75
0.19
-0.245
-0.25
-0.11
-0.005
0.01
0.005
0.0
0.01
0.02
0.01
0.005
0.0
0.025
0.01
0.005
0.0
0.0
0.0
0.0
0.0
0.0
0.0
0.005
0.0
0.0
0.0
0.0
0.0
0.005
0.03
0.025
0.025
0.035
0.055
0.055
0.07
0.075
0.085
0.09
0.1
0.095
0.095
0.085
0.085
0.07
0.075
0.065
0.06
0.065
0.06
0.06
0.055
0.07
0.055
0.055
0.075
0.07
0.07
0.07
0.07
0.07
0.07
0.085
0.075
0.09
0.1
0.095
0.08
0.085
0.08
0.08
0.085
0.075
0.075
0.055
0.07
0.07
0.065
0.065
0.065
0.065
0.05
0.055
0.055
0.055
0.06
0.06
0.06
0.065
0.055
0.04
0.055
0.06
0.085
0.09
0.1
0.1
0.095
0.09
0.085
0.08
0.07
0.075
0.075
0.075
0.07
0.065
0.06
0.055
0.04
0.065
0.04
0.05
0.06
0.07
0.065
0.07
0.045
0.115
0.38
0.7
0.91
0.555
-0.07
-0.29
-0.195
-0.05
-0.005
-0.005
-0.005
-0.005
-0.02
-0.01
-0.025
-0.015
-0.01
0.0
-0.01
-0.015
-0.02
-0.025
-0.01
-0.025
-0.02
-0.025
-0.025
-0.035
-0.035
-0.04
-0.03
-0.025
-0.035
-0.03
-0.025
-0.02
0.0
0.015
0.015
0.035
0.05
0.04
0.08
0.07
0.07
0.065
0.055
0.05
0.05
0.04
0.04
0.025
0.025
0.03
0.035
0.02
0.025
0.025
0.03
0.05
0.045
0.04
0.05
0.06
0.06
0.06
0.075
0.075
0.07
0.07
0.055
0.065
0.065
0.06
0.06
0.06
0.05
0.045
0.055
0.045
0.045
0.05
0.045
0.05
0.045
0.035
0.03
0.03
0.03
0.03
0.025
0.015
0.02
0.02
0.025
0.025
0.03
0.025
0.02
0.045
0.055
0.055
0.055
0.07
0.075
0.055
0.06
0.06
0.065
0.06
0.045
0.055
0.045
0.025
0.02
0.02
0.025
0.015
0.02
0.025
0.035
0.035
0.035
0.035
0.12
0.35
0.645
0.84
0.515
-0.11
-0.275
-0.185
-0.035
-0.01
-0.01
-0.005
0.0
0.0
-0.005
-0.01
-0.005
-0.01
-0.015
0.0
0.0
-0.005
0.0
-0.005
0.0
-0.015
-0.005
-0.01
-0.01
-0.01
-0.015
-0.025
-0.01
-0.015
-0.005
-0.005
-0.005
0.0
0.01
0.025
0.025
0.055
0.075
0.095
0.09
0.095
0.095
0.095
0.09
0.075
0.065
0.055
0.035
0.03
0.035
0.055
0.05
0.04
0.035
0.04
0.035
0.04
0.055
0.065
0.065
0.07
0.075
0.075
0.075
0.085
0.08
0.095
0.085
0.075
0.08
0.08
0.08
0.075
0.07
0.07
0.065
0.065
0.06
0.065
0.075
0.075
0.07
0.07
0.065
0.06
0.06
0.055
0.06
0.06
0.04
0.045
0.055
0.05
0.06
0.055
0.075
0.09
0.08
0.095
0.08
0.085
0.08
0.075
0.09
0.07
0.085
0.08
0.08
0.08
0.06
0.045
0.02
0.035
0.035
0.045
0.045
0.03
0.035
0.025
0.025
0.18
0.49
0.81
0.86
0.3
-0.26
-0.305
-0.17
-0.035
-0.005
-0.015
-0.03
-0.045
-0.055
-0.04
-0.035
-0.05
-0.045
-0.05
-0.06
-0.08
-0.08
-0.07
-0.08
-0.07
-0.075
-0.09
-0.085
-0.09
-0.1
-0.11
-0.1
-0.105
-0.095
-0.095
-0.095
-0.09
-0.095
-0.075
-0.075
-0.07
-0.05
-0.05
-0.035
-0.035
-0.045
-0.04
-0.06
-0.075
-0.09
-0.1
-0.105
-0.105
-0.125
-0.13
-0.15
-0.15
-0.15
-0.15
-0.16
-0.16
-0.165
-0.17
-0.165
-0.18
-0.175
-0.16
-0.17
-0.17
-0.175
-0.17
-0.19
-0.19
-0.2
-0.22
-0.22
-0.235
-0.25
-0.255
-0.265
-0.28
-0.28
-0.295
-0.295
-0.315
-0.31
-0.33
-0.335
-0.34
-0.34
-0.35
-0.365
-0.365
-0.375
-0.385
-0.39
-0.395
-0.4
-0.4
-0.41
-0.4
-0.405
-0.405
-0.42
-0.41
-0.435
-0.445
-0.455
-0.46
-0.475
-0.48
-0.46
-0.46
-0.465
-0.49
-0.505
-0.525
-0.52
-0.525
-0.525
-0.53
-0.535
-0.545
-0.555
-0.545
-0.42
-0.115
0.18
0.25
-0.295
-0.825
-0.88
-0.735
-0.665
-0.635
-0.645
-0.645
-0.65
-0.655
-0.66
-0.66
-0.675
-0.685
-0.685
-0.69
-0.705
-0.72
-0.72
-0.725
-0.73
-0.73
-0.75
-0.74
-0.74
-0.75
-0.75
-0.735
-0.735
-0.73
-0.72
-0.725
-0.725
-0.725
-0.71
-0.705
-0.695
-0.7
-0.7
-0.69
-0.685
-0.69
-0.7
-0.695
-0.7
-0.715
-0.735
-0.73
-0.735
-0.735
-0.725
-0.73
-0.725
-0.74
-0.735
-0.745
-0.735
-0.74
-0.74
-0.735
-0.75
-0.745
-0.735
-0.73
-0.73
-0.735
-0.73
-0.725
-0.72
-0.715
-0.735
-0.745
-0.735
-0.72
-0.72
-0.725
-0.72
-0.725
-0.72
-0.74
-0.73
-0.72
-0.735
-0.74
-0.74
-0.74
-0.745
-0.735
-0.75
-0.75
-0.75
-0.74
-0.75
-0.74
-0.745
-0.73
-0.71
-0.695
-0.715
-0.695
-0.69
-0.705
-0.72
-0.715
-0.695
-0.7
-0.715
-0.705
-0.71
-0.71
-0.72
-0.73
-0.735
-0.73
-0.74
-0.745
-0.735
-0.725
-0.725
-0.73
-0.695
-0.54
-0.22
0.07
-0.01
-0.635
-1.03
-1.005
-0.85
-0.77
-0.76
-0.76
-0.765
-0.75
-0.76
-0.76
-0.76
-0.76
-0.77
-0.755
-0.75
-0.745
-0.76
-0.755
-0.74
-0.755
-0.75
-0.755
-0.755
-0.755
-0.74
-0.75
-0.745
-0.745
-0.735
-0.73
-0.71
-0.71
-0.71
-0.68
-0.68
-0.655
-0.64
-0.63
-0.61
-0.6
-0.6
-0.605
-0.59
-0.6
-0.61
-0.61
-0.62
-0.615
-0.625
-0.625
-0.62
-0.62
-0.625
-0.615
-0.61
-0.6
-0.605
-0.59
-0.575
-0.57
-0.565
-0.55
-0.55
-0.55
-0.545
-0.555
-0.545
-0.555
-0.55
-0.545
-0.54
-0.55
-0.545
-0.55
-0.54
-0.535
-0.55
-0.56
-0.55
-0.54
-0.535
-0.52
-0.52
-0.52
-0.515
-0.51
-0.51
-0.505
-0.515
-0.515
-0.495
-0.5
-0.505
-0.515
-0.505
-0.48
-0.475
-0.47
-0.47
-0.45
-0.455
-0.46
-0.46
-0.45
-0.45
-0.445
-0.43
-0.435
-0.43
-0.445
-0.445
-0.46
-0.425
-0.445
-0.44
-0.435
-0.43
-0.42
-0.43
-0.405
-0.26
0.055
0.375
0.44
-0.105
-0.605
-0.655
-0.525
-0.41
-0.395
-0.415
-0.41
-0.41
-0.4
-0.4
-0.4
-0.385
-0.39
-0.385
-0.385
-0.38
-0.38
-0.365
-0.36
-0.355
-0.355
-0.35
-0.33
-0.32
-0.33
-0.325
-0.335
-0.32
-0.315
-0.315
-0.3
-0.285
-0.275
-0.27
-0.245
-0.24
-0.23
-0.21
-0.195
-0.18
-0.17
-0.155
-0.17
-0.16
-0.18
-0.17
-0.18
-0.18
-0.19
-0.185
-0.165
-0.17
-0.17
-0.16
-0.165
-0.15
-0.145
-0.135
-0.135
-0.115
-0.11
-0.09
-0.08
-0.075
-0.085
-0.085
-0.07
-0.075
-0.07
-0.085
-0.085
-0.08
-0.08
-0.07
-0.07
-0.06
-0.065
-0.065
-0.08
-0.045
-0.055
-0.04
-0.045
-0.04
-0.04
-0.03
-0.025
-0.03
-0.035
-0.02
-0.025
-0.02
-0.025
0.0
0.02
0.01
0.015
0.025
0.03
0.02
0.025
0.045
0.035
0.045
0.045
0.065
0.055
0.05
0.035
0.04
0.02
0.04
0.045
0.05
0.05
0.06
0.06
0.055
0.105
0.305
0.615
0.875
0.705
0.095
-0.245
-0.2
-0.03
0.05
0.065
0.05
0.055
0.07
0.06
0.055
0.065
0.06
0.055
0.06
0.065
0.075
0.07
0.07
0.08
0.08
0.09
0.09
0.09
0.105
0.09
0.085
0.09
0.085
0.095
0.09
0.105
0.125
0.115
0.125
0.135
0.155
0.16
0.185
0.19
0.21
0.21
0.21
0.215
0.205
0.19
0.2
0.19
0.18
0.175
0.18
0.18
0.175
0.19
0.195
0.19
0.195
0.195
0.205
0.21
0.22
0.23
0.255
0.26
0.255
0.25
0.255
0.27
0.25
0.25
0.25
0.245
0.245
0.245
0.235
0.23
0.225
0.225
0.235
0.23
0.235
0.215
0.23
0.225
0.21
0.22
0.22
0.22
0.215
0.215
0.22
0.215
0.205
0.21
0.21
0.225
0.245
0.235
0.235
0.265
0.24
0.225
0.215
0.24
0.245
0.24
0.24
0.245
0.25
0.24
0.225
0.21
0.21
0.21
0.21
0.225
0.21
0.215
0.215
0.23
0.37
0.705
0.995
1.035
0.475
-0.04
-0.07
0.05
0.16
0.175
0.17
0.17
0.17
0.17
0.165
0.165
0.155
0.165
0.175
0.16
0.17
0.165
0.18
0.18
0.18
0.19
0.195
0.195
0.195
0.185
0.195
0.195
0.2
0.195
0.21
0.21
0.2
0.215
0.235
0.245
0.26
0.28
0.285
0.295
0.31
0.29
0.305
0.3
0.3
0.28
0.285
0.295
0.29
0.285
0.285
0.285
0.285
0.28
0.275
0.29
0.29
0.3
0.3
0.31
0.32
0.31
0.325
0.34
0.325
0.33
0.33
0.345
0.345
0.33
0.32
0.325
0.325
0.32
0.31
0.315
0.31
0.31
0.295
0.305
0.305
0.29
0.295
0.295
0.3
0.31
0.295
0.305
0.3
0.305
0.3
0.3
0.3
0.305
0.3
0.32
0.325
0.32
0.315
0.34
0.33
0.325
0.31
0.315
0.325
0.32
0.35
0.335
0.335
0.315
0.32
0.315
0.31
0.31
0.32
0.315
0.31
0.305
0.31
0.34
0.5
0.81
1.055
0.915
0.305
-0.03
0.025
0.2
0.27
0.28
0.29
0.265
0.28
0.265
0.275
0.27
0.265
0.275
0.27
0.255
0.26
0.265
0.27
0.255
0.255
0.255
0.255
0.27
0.265
0.275
0.27
0.28
0.28
0.285
0.285
0.29
0.29
0.305
0.31
0.31
0.315
0.34
0.33
0.355
0.365
0.36
0.365
0.345
0.33
0.34
0.34
0.34
0.335
0.32
0.31
0.31
0.305
0.3
0.3
0.31
0.3
0.29
0.29
0.29
0.305
0.315
0.305
0.305
0.295
0.31
0.29
0.3
0.31
0.315
0.295
0.295
0.3
0.29
0.27
0.28
0.275
0.255
0.255
0.245
0.24
0.23
0.225
0.225
0.22
0.215
0.21
0.195
0.2
0.2
0.195
0.2
0.195
0.205
0.195
0.19
0.205
0.195
0.2
0.19
0.195
0.17
0.165
0.175
0.165
0.165
0.175
0.17
0.165
0.14
0.13
0.135
0.135
0.13
0.125
0.125
0.125
0.125
0.11
0.105
0.18
0.415
0.72
0.945
0.645
-0.005
-0.25
-0.195
-0.03
0.02
0.015
0.01
0.005
0.01
0.015
0.01
0.02
0.0
0.0
-0.005
-0.005
0.0
-0.01
-0.015
-0.015
-0.025
-0.035
-0.035
-0.035
-0.035
-0.02
-0.02
-0.02
-0.03
-0.02
0.0
-0.005
0.0
0.005
0.01
0.015
0.035
0.04
0.06
0.06
0.06
0.055
0.045
0.045
0.035
0.03
0.035
0.005
0.01
0.0
0.01
0.015
0.01
0.01
0.015
0.02
0.025
0.02
0.025
0.03
0.025
0.02
0.02
0.015
0.02
0.025
0.02
0.025
0.02
0.02
0.02
0.005
0.015
0.025
0.01
0.0
0.01
0.0
0.0
0.0
0.0
-0.005
-0.02
-0.025
-0.025
-0.015
-0.03
-0.03
-0.04
-0.03
-0.04
-0.04
-0.04
-0.005
0.0
0.0
0.0
0.0
-0.005
-0.015
-0.01
-0.015
-0.005
-0.01
-0.005
-0.02
-0.03
-0.04
-0.045
-0.05
-0.045
-0.055
-0.045
-0.045
-0.04
-0.03
-0.045
0.035
0.26
0.565
0.75
0.425
-0.185
-0.365
-0.255
-0.11
-0.065
-0.07
-0.07
-0.06
-0.055
-0.06
-0.065
-0.055
-0.06
-0.045
-0.045
-0.035
-0.03
-0.045
-0.035
-0.04
-0.025
-0.03
-0.03
-0.035
-0.03
-0.02
-0.02
-0.01
0.0
0.0
0.01
0.01
0.02
0.03
0.045
0.05
0.08
0.09
0.105
0.115
0.115
0.125
0.115
0.11
0.085
0.095
0.09
0.09
0.075
0.09
0.09
0.09
0.08
0.095
0.1
0.11
0.09
0.11
0.115
0.125
0.125
0.13
0.12
0.125
0.135
0.13
0.13
0.115
0.13
0.115
0.11
0.115
0.105
0.115
0.1
0.095
0.09
0.1
0.095
0.09
0.08
0.09
0.075
0.065
0.055
0.055
0.05
0.04
0.025
0.03
0.02
0.025
0.025
0.045
0.035
0.02
0.03
0.03
0.01
0.005
0.01
0.015
0.0
0.0
-0.01
-0.01
-0.03
-0.04
-0.045
-0.065
-0.075
-0.09
-0.085
-0.095
-0.095
-0.105
-0.115
-0.105
0.065
0.35
0.615
0.54
-0.065
-0.515
-0.505
-0.34
-0.23
-0.225
-0.235
-0.245
-0.26
-0.275
-0.285
-0.305
-0.31
-0.32
-0.335
-0.34
-0.34
-0.355
-0.365
-0.375
-0.375
-0.38
-0.375
-0.38
-0.385
-0.395
-0.4
-0.405
-0.4
-0.405
-0.405
-0.4
-0.395
-0.395
-0.395
-0.39
-0.375
-0.38
-0.37
-0.365
-0.36
-0.36
-0.37
-0.38
-0.39
-0.4
-0.4
-0.4
-0.41
-0.415
-0.425
-0.435
-0.445
-0.45
-0.445
-0.435
-0.445
-0.45
-0.45
-0.47
-0.455
-0.46
-0.46
-0.455
-0.465
-0.46
-0.475
-0.475
-0.47
-0.47
-0.48
-0.475
-0.48
-0.495
-0.505
-0.495
-0.515
-0.52
-0.52
-0.53
-0.53
-0.53
-0.545
-0.54
-0.555
-0.56
-0.56
-0.555
-0.575
-0.58
-0.575
-0.585
-0.57
-0.57
-0.58
-0.57
-0.565
-0.56
-0.58
-0.575
-0.56
-0.57
-0.585
-0.6
-0.595
-0.6
-0.6
-0.61
-0.605
-0.605
-0.64
-0.64
-0.645
-0.65
-0.64
-0.635
-0.635
-0.635
-0.64
-0.645
-0.6
-0.375
-0.03
0.225
0.02
-0.65
-0.95
-0.905
-0.76
-0.715
-0.715
-0.725
-0.72
-0.725
-0.725
-0.715
-0.72
-0.71
-0.715
-0.7
-0.71
-0.705
-0.72
-0.715
-0.705
-0.72
-0.72
-0.71
-0.72
-0.715
-0.71
-0.71
-0.71
-0.695
-0.695
-0.695
-0.695
-0.685
-0.68
-0.655
-0.63
-0.615
-0.62
-0.585
-0.58
-0.575
-0.575
-0.575
-0.585
-0.58
-0.58
-0.59
-0.6
-0.6
-0.605
-0.59
-0.59
-0.6
-0.595
-0.585
-0.575
-0.565
-0.56
-0.54
-0.545
-0.55
-0.535
-0.54
-0.53
-0.52
-0.53
-0.515
-0.52
-0.535
-0.53
-0.525
-0.515
-0.515
-0.525
-0.525
-0.505
-0.5
-0.495
-0.475
-0.48
-0.49
-0.485
-0.49
-0.485
-0.485
-0.475
-0.48
-0.495
-0.47
-0.49
-0.48
-0.475
-0.46
-0.455
-0.43
-0.43
-0.435
-0.425
-0.4
-0.415
-0.425
-0.415
-0.415
-0.395
-0.4
-0.4
-0.4
-0.42
-0.435
-0.44
-0.42
-0.42
-0.435
-0.425
-0.42
-0.425
-0.415
-0.415
-0.345
-0.11
0.22
0.44
0.17
-0.5
-0.725
-0.665
-0.485
-0.425
-0.41
-0.425
-0.42
-0.41
-0.415
-0.415
-0.425
-0.415
-0.42
-0.415
-0.415
-0.415
-0.415
-0.405
-0.4
-0.405
-0.4
-0.41
-0.41
-0.395
-0.395
-0.41
-0.4
-0.41
-0.39
-0.38
-0.375
-0.365
-0.35
-0.34
-0.33
-0.315
-0.31
-0.295
-0.275
-0.26
-0.27
-0.255
-0.265
-0.27
-0.27
-0.29
-0.275
-0.28
-0.295
-0.28
-0.275
-0.285
-0.275
-0.27
-0.265
-0.25
-0.245
-0.235
-0.225
-0.21
-0.19
-0.195
-0.195
-0.19
-0.19
-0.195
-0.18
-0.2
-0.18
-0.195
-0.2
-0.195
-0.185
-0.195
-0.195
-0.18
-0.205
-0.195
-0.19
-0.185
-0.18
-0.175
-0.175
-0.165
-0.175
-0.165
-0.19
-0.165
-0.18
-0.175
-0.185
-0.18
-0.16
-0.16
-0.14
-0.135
-0.145
-0.125
-0.13
-0.135
-0.125
-0.125
-0.125
-0.12
-0.105
-0.11
-0.125
-0.12
-0.145
-0.145
-0.15
-0.14
-0.15
-0.15
-0.14
-0.14
-0.155
-0.12
0.1
0.435
0.73
0.555
-0.1
-0.435
-0.4
-0.235
-0.15
-0.165
-0.165
-0.16
-0.175
-0.16
-0.17
-0.165
-0.175
-0.17
-0.17
-0.165
-0.17
-0.155
-0.16
-0.16
-0.16
-0.165
-0.135
-0.145
-0.135
-0.145
-0.14
-0.12
-0.115
-0.115
-0.12
-0.12
-0.105
-0.095
-0.09
-0.055
-0.05
-0.03
-0.035
-0.01
0.0
0.0
0.0
0.005
0.0
-0.01
-0.005
-0.01
-0.01
-0.015
-0.015
-0.02
-0.01
-0.015
-0.01
-0.01
-0.005
0.005
0.01
0.02
0.03
0.035
0.045
0.055
0.07
0.065
0.07
0.065
0.07
0.055
0.065
0.08
0.05
0.05
0.06
0.065
0.045
0.055
0.06
0.06
0.065
0.07
0.055
0.075
0.06
0.065
0.07
0.065
0.07
0.07
0.08
0.095
0.1
0.12
0.11
0.1
0.105
0.12
0.105
0.11
0.11
0.13
0.115
0.12
0.13
0.135
0.13
0.115
0.105
0.105
0.115
0.12
0.12
0.115
0.11
0.1
0.105
0.185
0.455
0.765
0.905
0.49
-0.12
-0.255
-0.13
0.025
0.075
0.075
0.06
0.065
0.065
0.06
0.065
0.07
0.05
0.04
0.04
0.03
0.04
0.045
0.045
0.05
0.055
0.05
0.05
0.045
0.06
0.055
0.06
0.07
0.07
0.075
0.09
0.09
0.09
0.1
0.115
0.13
0.13
0.16
0.165
0.16
0.16
0.16
0.15
0.14
0.145
0.14
0.135
0.135
0.125
0.12
0.125
0.125
0.125
0.12
0.12
0.115
0.125
0.12
0.135
0.14
0.155
0.16
0.16
0.17
0.175
0.175
0.18
0.19
0.19
0.18
0.18
0.19
0.185
0.175
0.18
0.175
0.165
0.165
0.15
0.16
0.145
0.155
0.16
0.15
0.155
0.15
0.14
0.16
0.17
0.145
0.145
0.155
0.15
0.165
0.175
0.185
0.165
0.18
0.19
0.165
0.155
0.17
0.165
0.165
0.165
0.17
0.17
0.16
0.145
0.14
0.135
0.12
0.145
0.145
0.14
0.125
0.125
0.115
0.155
0.35
0.665
0.965
0.87
0.23
-0.19
-0.205
-0.04
0.045
0.06
0.05
0.06
0.06
0.06
0.05
0.05
0.05
0.045
0.04
0.04
0.025
0.025
0.02
0.02
0.03
0.03
0.015
0.015
0.025
0.02
0.03
0.02
0.035
0.04
0.045
0.055
0.06
0.07
0.085
0.085
0.09
0.115
0.11
0.115
0.125
0.125
0.125
0.115
0.11
0.1
0.1
0.09
0.09
0.095
0.095
0.095
0.1
0.1
0.1
0.1
0.09
0.1
0.105
0.095
0.095
0.11
0.115
0.115
0.125
0.125
0.13
0.125
0.115
0.115
0.12
0.12
0.12
0.135
0.12
0.12
0.12
0.115
0.11
0.105
0.11
0.105
0.095
0.11
0.1
0.1
0.095
0.09
0.095
0.08
0.095
0.09
0.115
0.125
0.125
0.11
0.11
0.13
0.12
0.105
0.11
0.11
0.1
0.105
0.11
0.12
0.095
0.095
0.09
0.075
0.06
0.065
0.085
0.085
0.09
0.085
0.075
0.095
0.26
0.545
0.81
0.77
0.21
-0.24
-0.25
-0.1
0.025
0.025
0.015
0.025
0.02
0.005
0.015
0.015
0.02
0.025
0.02
0.01
0.01
0.005
0.0
-0.005
0.0
0.005
0.0
0.0
0.0
-0.005
0.0
0.005
0.01
0.005
0.0
0.005
0.005
0.02
0.045
0.04
0.06
0.07
0.095
0.095
0.09
0.08
0.07
0.065
0.045
0.06
0.06
0.06
0.05
0.045
0.04
0.045
0.05
0.04
0.055
0.06
0.055
0.06
0.055
0.05
0.065
0.075
0.085
0.08
0.065
0.07
0.085
0.06
0.07
0.07
0.075
0.07
0.07
0.06
0.05
0.06
0.065
0.075
0.07
0.07
0.06
0.065
0.055
0.05
0.05
0.05
0.035
0.045
0.04
0.045
0.04
0.04
0.055
0.06
0.06
0.06
0.075
0.07
0.055
0.055
0.055
0.06
0.065
0.06
0.05
0.055
0.04
0.02
0.005
0.015
0.02
0.005
0.03
0.015
0.015
0.015
0.0
0.045
0.24
0.57
0.84
0.68
0.05
-0.32
-0.305
-0.155
-0.06
-0.045
-0.07
-0.08
-0.075
-0.06
-0.07
-0.08
-0.08
-0.08
-0.09
-0.1
-0.105
-0.09
-0.08
-0.105
-0.1
-0.105
-0.1
-0.11
-0.105
-0.1
-0.11
-0.12
-0.11
-0.11
-0.105
-0.095
-0.085
-0.08
-0.075
-0.06
-0.045
-0.035
-0.005
-0.015
0.0
-0.005
-0.005
-0.005
-0.02
-0.025
-0.025
-0.035
-0.045
-0.05
-0.065
-0.07
-0.065
-0.055
-0.055
-0.055
-0.05
-0.035
-0.05
-0.025
-0.035
-0.02
-0.025
-0.015
-0.005
-0.02
-0.015
-0.025
-0.025
-0.035
-0.035
-0.05
-0.045
-0.04
-0.055
-0.055
-0.05
-0.045
-0.055
-0.055
-0.045
-0.04
-0.04
-0.05
-0.04
-0.04
-0.055
-0.035
-0.035
-0.05
-0.055
-0.055
-0.06
-0.03
-0.015
-0.015
-0.02
-0.02
-0.025
-0.03
-0.05
-0.03
-0.04
-0.035
-0.02
-0.02
-0.04
-0.04
-0.06
-0.065
-0.065
-0.075
-0.065
-0.07
-0.055
-0.065
-0.07
-0.05
0.115
0.41
0.68
0.615
0.045
-0.385
-0.4
-0.255
-0.13
-0.105
-0.12
-0.12
-0.115
-0.12
-0.12
-0.125
-0.135
-0.13
-0.14
-0.145
-0.15
-0.16
-0.15
-0.15
-0.15
-0.15
-0.155
-0.16
-0.155
-0.155
-0.14
-0.14
-0.14
-0.135
-0.15
-0.135
-0.145
-0.13
-0.125
-0.105
-0.095
-0.065
-0.075
-0.06
-0.07
-0.075
-0.045
-0.09
-0.095
-0.105
-0.115
-0.105
-0.09
-0.085
-0.095
-0.08
-0.085
-0.085
-0.1
-0.12
-0.13
-0.11
-0.085
-0.09
-0.08
-0.085
-0.085
-0.08
-0.08
-0.07
-0.06
-0.06
-0.07
-0.07
-0.07
0.0
0.235
0.52
0.66
0.315
-0.315
-0.41
-0.29
-0.155
-0.165
-0.17
-0.17
-0.17
-0.165
-0.175
-0.165
-0.175
-0.18
-0.17
-0.165
-0.17
-0.165
-0.17
-0.18
-0.185
-0.185
-0.185
-0.185
-0.2
-0.21
-0.215
-0.205
-0.195
-0.19
-0.19
-0.2
-0.195
-0.185
-0.16
-0.16
-0.145
-0.13
-0.13
-0.135
-0.135
-0.16
-0.16
-0.185
-0.2
-0.21
-0.22
-0.23
-0.225
-0.225
-0.225
-0.215
-0.22
-0.215
-0.215
-0.2
-0.21
-0.2
-0.19
-0.185
-0.19
-0.205
-0.2
-0.21
-0.225
-0.23
-0.225
-0.23
-0.24
-0.25
-0.255
-0.265
-0.27
-0.27
-0.27
-0.28
-0.28
-0.285
-0.29
-0.28
-0.29
-0.28
-0.3
-0.305
-0.315
-0.315
-0.32
-0.315
-0.34
-0.33
-0.34
-0.345
-0.35
-0.345
-0.325
-0.35
-0.355
-0.36
-0.34
-0.365
-0.375
-0.365
-0.355
-0.36
-0.355
-0.365
-0.365
-0.365
-0.37
-0.375
-0.37
-0.385
-0.385
-0.395
-0.4
-0.39
-0.405
-0.4
-0.4
-0.405
-0.4
-0.4
-0.405
-0.41
-0.4
-0.405
-0.4
-0.39
-0.405
-0.405
-0.39
-0.38
-0.375
-0.385
-0.385
-0.38
-0.405
-0.405
-0.385
-0.4
-0.405
-0.4
-0.41
-0.405
-0.42
-0.425
-0.42
-0.415
-0.42
-0.425
-0.425
-0.415
-0.42
-0.43
-0.405
-0.25
0.09
0.38
0.35
-0.285
-0.725
-0.745
-0.61
-0.525
-0.505
-0.53
-0.53
-0.52
-0.51
-0.525
-0.525
-0.52
-0.53
-0.525
-0.525
-0.53
-0.535
-0.545
-0.545
-0.54
-0.545
-0.54
-0.545
-0.545
-0.54
-0.53
-0.535
-0.53
-0.515
-0.52
-0.495
-0.49
-0.495
-0.485
-0.46
-0.465
-0.435
-0.425
-0.415
-0.415
-0.415
-0.41
-0.39
-0.4
-0.41
-0.405
-0.415
-0.415
-0.425
-0.43
-0.42
-0.41
-0.42
-0.425
-0.42
-0.425
-0.415
-0.42
-0.395
-0.405
-0.405
-0.4
-0.38
-0.38
-0.385
-0.385
-0.375
-0.38
-0.385
-0.38
-0.385
-0.385
-0.38
-0.39
-0.38
-0.395
-0.38
-0.385
-0.385
-0.385
-0.395
-0.395
-0.4
-0.405
-0.385
-0.39
-0.39
-0.38
-0.395
-0.38
-0.375
-0.375
-0.38
-0.375
-0.36
-0.355
-0.35
-0.33
-0.33
-0.345
-0.32
-0.33
-0.34
-0.34
-0.34
-0.34
-0.34
-0.33
-0.32
-0.325
-0.345
-0.33
-0.335
-0.33
-0.315
-0.315
-0.305
-0.305
-0.315
-0.285
-0.165
0.135
0.425
0.495
-0.065
-0.605
-0.645
-0.5
-0.36
-0.325
-0.33
-0.34
-0.335
-0.335
-0.34
-0.335
-0.32
-0.32
-0.33
-0.33
-0.335
-0.335
-0.34
-0.34
-0.325
-0.33
-0.33
-0.345
-0.335
-0.32
-0.34
-0.33
-0.325
-0.335
-0.32
-0.315
-0.315
-0.29
-0.27
-0.26
-0.245
-0.225
-0.22
-0.215
-0.195
-0.205
-0.21
-0.195
-0.2
-0.22
-0.21
-0.22
-0.22
-0.225
-0.22
-0.22
-0.21
-0.22
-0.215
-0.2
-0.185
-0.195
-0.195
-0.175
-0.175
-0.17
-0.155
-0.155
-0.155
-0.175
-0.18
-0.165
-0.17
-0.15
-0.17
-0.175
-0.18
-0.18
-0.17
-0.18
-0.175
-0.16
-0.175
-0.17
-0.175
-0.17
-0.17
-0.17
-0.175
-0.185
-0.19
-0.195
-0.195
-0.18
-0.175
-0.175
-0.17
-0.175
-0.16
-0.155
-0.165
-0.15
-0.12
-0.115
-0.11
-0.11
-0.105
-0.12
-0.125
-0.115
-0.115
-0.115
-0.11
-0.12
-0.115
-0.11
-0.13
-0.135
-0.135
-0.125
-0.13
-0.125
-0.125
-0.12
-0.12
-0.135
-0.09
0.12
0.46
0.76
0.61
-0.055
-0.415
-0.395
-0.24
-0.16
-0.16
-0.155
-0.15
-0.15
-0.15
-0.155
-0.14
-0.15
-0.16
-0.15
-0.15
-0.15
-0.15
-0.135
-0.135
-0.135
-0.14
-0.145
-0.14
-0.13
-0.15
-0.14
-0.14
-0.135
-0.14
-0.13
-0.125
-0.105
-0.1
-0.095
-0.085
-0.065
-0.04
-0.02
-0.015
0.0
0.01
0.0
-0.005
-0.005
-0.02
-0.02
-0.035
-0.035
-0.035
-0.035
-0.03
-0.025
-0.03
-0.035
-0.04
-0.02
-0.02
-0.01
0.01
0.0
0.01
0.01
0.01
0.015
0.02
0.015
0.015
0.01
0.005
0.005
0.01
0.005
0.0
0.0
0.0
0.015
0.0
0.0
0.0
0.015
0.02
0.01
0.02
0.005
0.015
0.01
0.0
0.015
0.0
0.015
0.005
0.01
0.005
0.015
0.045
0.05
0.055
0.055
0.07
0.065
0.055
0.05
0.065
0.075
0.075
0.075
0.07
0.075
0.06
0.05
0.055
0.04
0.045
0.05
0.05
0.055
0.06
0.06
0.075
0.23
0.525
0.805
0.76
0.14
-0.275
-0.245
-0.045
0.035
0.045
0.05
0.04
0.05
0.05
0.035
0.045
0.05
0.04
0.045
0.04
0.04
0.04
0.05
0.04
0.035
0.045
0.04
0.04
0.05
0.055
0.05
0.05
0.05
0.06
0.07
0.07
0.075
0.06
0.08
0.105
0.115
0.14
0.14
0.15
0.16
0.16
0.16
0.165
0.15
0.145
0.145
0.13
0.13
0.13
0.14
0.135
0.125
0.125
0.115
0.125
0.125
0.13
0.145
0.14
0.145
0.155
0.155
0.165
0.165
0.185
0.19
0.175
0.18
0.18
0.175
0.19
0.18
0.165
0.17
0.165
0.14
0.15
0.16
0.16
0.15
0.165
0.15
0.155
0.16
0.15
0.155
0.16
0.155
0.15
0.18
0.15
0.155
0.155
0.16
0.17
0.18
0.18
0.17
0.19
0.19
0.16
0.175
0.185
0.18
0.18
0.175
0.19
0.185
0.18
0.165
0.165
0.155
0.165
0.17
0.16
0.16
0.16
0.145
0.175
0.34
0.665
0.965
0.92
0.315
-0.135
-0.15
0.01
0.115
0.135
0.13
0.135
0.13
0.125
0.14
0.135
0.125
0.13
0.115
0.125
0.125
0.115
0.11
0.115
0.12
0.12
0.1
0.11
0.115
0.115
0.12
0.12
0.12
0.135
0.145
0.15
0.15
0.165
0.185
0.185
0.205
0.215
0.22
0.23
0.235
0.23
0.235
0.22
0.22
0.195
0.19
0.205
0.21
0.2
0.21
0.245
0.23
0.235
0.225
0.215
0.225
0.24
0.25
0.24
0.235
0.24
0.225
0.23
0.225
0.24
0.225
0.24
0.235
0.24
0.265
0.485
0.78
1.075
0.935
0.24
-0.115
-0.015
0.15
0.185
0.17
0.17
0.16
0.155
0.16
0.14
0.15
0.14
0.13
0.135
0.145
0.135
0.145
0.135
0.135
0.14
0.15
0.165
0.14
0.145
0.135
0.14
0.15
0.15
0.145
0.155
0.155
0.175
0.18
0.19
0.215
0.23
0.225
0.235
0.24
0.245
0.22
0.22
0.215
0.205
0.22
0.205
0.2
0.205
0.205
0.2
0.21
0.205
0.22
0.215
0.23
0.22
0.235
0.23
0.235
0.235
0.23
0.23
0.24
0.245
0.245
0.23
0.23
0.22
0.22
0.22
0.22
0.21
0.2
0.2
0.205
0.205
0.21
0.205
0.195
0.205
0.195
0.185
0.205
0.21
0.21
0.205
0.205
0.19
0.195
0.21
0.19
0.2
0.19
0.185
0.18
0.18
0.175
0.19
0.18
0.175
0.18
0.17
0.175
0.175
0.175
0.175
0.17
0.165
0.175
0.17
0.17
0.155
0.15
0.165
0.16
0.145
0.15
0.145
0.155
0.145
0.145
0.145
0.14
0.14
0.14
0.135
0.16
0.185
0.175
0.175
0.18
0.17
0.155
0.165
0.16
0.16
0.15
0.155
0.15
0.145
0.125
0.12
0.115
0.12
0.115
0.11
0.12
0.12
0.11
0.11
0.235
0.53
0.835
0.96
0.495
-0.11
-0.255
-0.14
0.0
0.025
0.005
0.01
0.01
0.015
0.0
0.0
0.0
0.0
-0.01
-0.015
-0.015
-0.01
-0.025
-0.015
-0.03
-0.02
-0.02
-0.03
-0.03
-0.04
-0.04
-0.04
-0.03
-0.035
-0.035
-0.02
-0.015
0.0
0.0
0.005
0.005
0.045
0.06
0.07
0.08
0.095
0.095
0.09
0.085
0.08
0.07
0.07
0.05
0.03
0.03
0.045
0.025
0.03
0.03
0.015
0.01
0.01
0.01
0.015
0.015
0.025
0.015
0.01
0.005
0.0
0.0
-0.02
-0.035
-0.025
-0.055
-0.05
-0.06
-0.07
-0.075
-0.08
-0.105
-0.11
-0.125
-0.135
-0.15
-0.15
-0.155
-0.15
-0.17
-0.19
-0.195
-0.205
-0.215
-0.22
-0.23
-0.235
-0.245
-0.27
-0.29
-0.29
-0.295
-0.315
-0.31
-0.315
-0.31
-0.315
-0.345
-0.33
-0.34
-0.345
-0.38
-0.375
-0.38
-0.39
-0.405
-0.395
-0.41
-0.435
-0.465
-0.47
-0.485
-0.5
-0.5
-0.5
-0.52
-0.53
-0.545
-0.55
-0.47
-0.22
0.085
0.245
-0.1
-0.73
-0.91
-0.85
-0.72
-0.685
-0.685
-0.705
-0.71
-0.715
-0.72
-0.75
-0.755
-0.755
-0.775
-0.775
-0.79
-0.81
-0.815
-0.835
-0.84
-0.835
-0.835
-0.845
-0.845
-0.85
-0.855
-0.855
-0.86
-0.87
-0.875
-0.88
-0.89
-0.89
-0.895
-0.895
-0.865
-0.875
-0.865
-0.865
-0.865
-0.87
-0.87
-0.885
-0.885
-0.895
-0.895
-0.91
-0.915
-0.925
-0.94
-0.95
-0.96
-0.97
-0.965
-0.975
-0.985
-0.985
-0.99
-0.995
-1.005
-1.01
-0.985
-1.01
-1.005
-1.005
-1.01
-1.005
-1.025
-1.015
-1.02
-1.03
-1.025
-1.04
-1.06
-1.06
-1.07
-1.085
-1.08
-1.1
-1.11
-1.1
-1.115
-1.115
-1.13
-1.14
-1.125
-1.145
-1.15
-1.16
-1.16
-1.165
-1.165
-1.175
-1.17
-1.175
-1.17
-1.165
-1.165
-1.16
-1.175
-1.185
-1.2
-1.21
-1.21
-1.21
-1.21
-1.205
-1.22
-1.215
-1.22
-1.245
-1.255
-1.26
-1.24
-1.245
-1.25
-1.24
-1.24
-1.255
-1.275
-1.23
-1.015
-0.72
-0.43
-0.585
-1.22
-1.595
-1.57
-1.405
-1.33
-1.33
-1.33
-1.33
-1.33
-1.335
-1.33
-1.32
-1.32
-1.325
-1.325
-1.33
-1.335
-1.33
-1.34
-1.35
-1.335
-1.34
-1.345
-1.345
-1.345
-1.335
-1.335
-1.335
-1.325
-1.315
-1.31
-1.3
-1.28
-1.275
-1.25
-1.26
-1.22
-1.21
-1.195
-1.185
-1.175
-1.18
-1.18
-1.185
-1.18
-1.185
-1.185
-1.2
-1.19
-1.19
-1.185
-1.19
-1.165
-1.16
-1.165
-1.15
-1.145
-1.15
-1.12
-1.11
-1.115
-1.105
-1.1
-1.085
-1.095
-1.09
-1.08
-1.09
-1.085
-1.08
-1.09
-1.09
-1.075
-1.085
-1.08
-1.08
-1.075
-1.055
-1.035
-1.04
-1.045
-1.045
-1.03
-1.04
-1.03
-1.015
-1.025
-1.025
-1.025
-1.015
-1.02
-1.01
-1.005
-1.005
-1.0
-0.98
-0.955
-0.945
-0.95
-0.915
-0.925
-0.935
-0.925
-0.925
-0.905
-0.915
-0.91
-0.91
-0.905
-0.905
-0.915
-0.91
-0.915
-0.915
-0.915
-0.905
-0.9
-0.885
-0.885
-0.9
-0.83
-0.585
-0.255
-0.02
-0.36
-0.985
-1.155
-1.065
-0.92
-0.865
-0.855
-0.865
-0.86
-0.86
-0.855
-0.845
-0.845
-0.845
-0.83
-0.845
-0.82
-0.815
-0.81
-0.8
-0.775
-0.78
-0.77
-0.775
-0.765
-0.75
-0.745
-0.74
-0.72
-0.72
-0.705
-0.69
-0.685
-0.675
-0.665
-0.64
-0.62
-0.625
-0.61
-0.595
-0.565
-0.55
-0.55
-0.555
-0.545
-0.565
-0.545
-0.545
-0.54
-0.52
-0.52
-0.5
-0.485
-0.485
-0.48
-0.48
-0.49
-0.465
-0.46
-0.45
-0.44
-0.435
-0.43
-0.41
-0.395
-0.395
-0.37
-0.375
-0.36
-0.36
-0.365
-0.245
0.035
0.35
0.46
0.025
-0.56
-0.58
-0.435
-0.36
-0.36
-0.365
-0.35
-0.35
-0.335
-0.325
-0.33
-0.325
-0.315
-0.305
-0.31
-0.295
-0.305
-0.305
-0.295
-0.29
-0.28
-0.275
-0.265
-0.26
-0.25
-0.265
-0.25
-0.235
-0.23
-0.225
-0.2
-0.19
-0.17
-0.155
-0.135
-0.11
-0.11
-0.095
-0.105
-0.105
-0.12
-0.11
-0.105
-0.095
-0.095
-0.12
-0.1
-0.105
-0.1
-0.095
-0.08
-0.065
-0.05
-0.04
-0.035
-0.03
-0.03
-0.025
-0.015
0.0
-0.01
-0.015
-0.015
-0.01
-0.005
-0.005
-0.005
0.0
0.0
0.005
0.01
0.005
0.01
0.02
0.035
0.03
0.03
0.025
0.04
0.04
0.045
0.05
0.035
0.045
0.05
0.05
0.07
0.065
0.07
0.065
0.08
0.07
0.085
0.09
0.105
0.105
0.12
0.105
0.12
0.125
0.13
0.135
0.125
0.13
0.13
0.14
0.135
0.155
0.15
0.145
0.155
0.155
0.165
0.165
0.175
0.175
0.18
0.185
0.19
0.195
0.195
0.215
0.2
0.2
0.205
0.205
0.215
0.215
0.235
0.255
0.265
0.25
0.27
0.265
0.265
0.255
0.28
0.28
0.295
0.29
0.295
0.285
0.285
0.285
0.275
0.28
0.265
0.275
0.285
0.285
0.285
0.285
0.355
0.62
0.945
1.205
0.85
0.19
-0.015
0.065
0.215
0.25
0.23
0.25
0.255
0.255
0.24
0.24
0.245
0.23
0.23
0.24
0.24
0.235
0.23
0.24
0.235
0.23
0.235
0.24
0.255
0.26
0.26
0.255
0.25
0.26
0.27
0.275
0.29
0.285
0.285
0.305
0.31
0.34
0.335
0.375
0.37
0.405
0.4
0.405
0.415
0.415
0.425
0.425
0.42
0.43
0.42
0.42
0.41
0.4
0.4
0.4
0.395
0.385
0.405
0.415
0.41
0.425
0.425
0.415
0.415
0.44
0.445
0.445
0.455
0.455
0.44
0.44
0.435
0.435
0.425
0.44
0.435
0.43
0.43
0.435
0.415
0.415
0.415
0.42
0.42
0.41
0.42
0.41
0.415
0.405
0.39
0.405
0.405
0.42
0.405
0.4
0.41
0.41
0.42
0.43
0.445
0.445
0.44
0.435
0.415
0.41
0.415
0.415
0.41
0.415
0.395
0.42
0.41
0.385
0.365
0.37
0.38
0.375
0.385
0.38
0.375
0.37
0.37
0.36
0.5
0.795
1.08
1.095
0.535
0.045
0.01
0.145
0.28
0.285
0.265
0.26
0.27
0.27
0.26
0.275
0.275
0.275
0.25
0.255
0.25
0.235
0.24
0.24
0.225
0.235
0.23
0.22
0.22
0.22
0.215
0.21
0.205
0.215
0.21
0.225
0.22
0.24
0.24
0.255
0.265
0.28
0.29
0.295
0.315
0.31
0.315
0.31
0.29
0.285
0.275
0.27
0.255
0.255
0.255
0.255
0.25
0.24
0.235
0.255
0.255
0.25
0.265
0.27
0.265
0.28
0.275
0.275
0.28
0.28
0.275
0.28
0.26
0.26
0.265
0.26
0.25
0.24
0.24
0.23
0.22
0.215
0.215
0.22
0.225
0.23
0.215
0.22
0.21
0.21
0.205
0.205
0.21
0.205
0.195
0.2
0.18
0.175
0.185
0.175
0.19
0.2
0.21
0.2
0.21
0.195
0.195
0.185
0.19
0.195
0.2
0.175
0.195
0.18
0.175
0.16
0.135
0.14
0.145
0.13
0.135
0.125
0.13
0.11
0.115
0.245
0.55
0.88
0.97
0.42
-0.16
-0.225
-0.085
0.02
0.05
0.04
0.03
0.015
0.02
0.025
0.02
0.0
0.0
0.0
0.0
-0.01
-0.015
-0.01
-0.01
-0.005
-0.015
-0.03
-0.015
-0.01
-0.02
-0.005
-0.01
-0.005
-0.01
-0.01
0.0
0.01
0.01
0.01
0.03
0.035
0.06
0.06
0.075
0.08
0.08
0.075
0.065
0.065
0.055
0.06
0.06
0.06
0.04
0.04
0.045
0.045
0.04
0.04
0.05
0.04
0.045
0.035
0.045
0.065
0.065
0.065
0.08
0.075
0.065
0.08
0.08
0.065
0.085
0.085
0.075
0.065
0.06
0.07
0.065
0.065
0.07
0.05
0.055
0.045
0.035
0.055
0.055
0.04
0.045
0.05
0.05
0.05
0.05
0.05
0.06
0.07
0.06
0.05
0.07
0.07
0.09
0.085
0.08
0.09
0.07
0.055
0.055
0.06
0.055
0.075
0.06
0.07
0.045
0.03
0.025
0.04
0.03
0.04
0.04
0.05
0.04
0.05
0.04
0.16
0.43
0.715
0.8
0.32
-0.24
-0.295
-0.185
-0.025
-0.01
-0.01
0.0
0.0
-0.01
-0.005
-0.005
-0.015
-0.005
-0.025
-0.015
-0.02
-0.015
-0.025
-0.015
-0.015
-0.03
-0.035
-0.04
-0.045
-0.035
-0.025
-0.04
-0.02
-0.02
-0.025
0.0
0.0
-0.005
0.01
0.015
0.04
0.055
0.045
0.065
0.08
0.085
0.075
0.065
0.07
0.055
0.05
0.03
0.03
0.04
0.045
0.04
0.04
0.04
0.02
0.035
0.035
0.055
0.065
0.06
0.06
0.065
0.065
0.07
0.06
0.06
0.08
0.065
0.06
0.07
0.065
0.07
0.06
0.055
0.055
0.05
0.06
0.06
0.055
0.065
0.07
0.065
0.06
0.05
0.07
0.06
0.065
0.05
0.05
0.04
0.04
0.035
0.055
0.04
0.045
0.07
0.065
0.07
0.08
0.08
0.075
0.065
0.06
0.07
0.065
0.065
0.05
0.07
0.065
0.04
0.03
0.02
0.02
0.02
0.015
0.015
0.015
0.02
0.0
0.02
0.19
0.51
0.81
0.75
0.14
-0.31
-0.325
-0.155
-0.055
-0.035
-0.055
-0.06
-0.05
-0.055
-0.065
-0.075
-0.075
-0.07
-0.08
-0.09
-0.095
-0.11
-0.105
-0.11
-0.1
-0.1
-0.105
-0.1
-0.1
-0.1
-0.105
-0.11
-0.095
-0.095
-0.09
-0.085
-0.085
-0.08
-0.06
-0.045
-0.025
-0.015
-0.005
-0.005
-0.005
-0.005
0.0
-0.01
-0.01
-0.015
-0.03
-0.025
-0.035
-0.03
-0.04
-0.045
-0.04
-0.045
-0.04
-0.04
-0.03
-0.045
-0.03
-0.035
-0.025
-0.02
-0.015
-0.005
0.0
-0.005
0.0
-0.005
0.0
-0.01
-0.005
-0.01
-0.01
-0.025
-0.025
-0.035
-0.04
-0.045
-0.045
-0.035
-0.04
-0.03
-0.03
-0.035
-0.045
-0.035
-0.03
-0.015
-0.015
-0.02
-0.01
-0.02
-0.025
-0.02
-0.025
-0.005
0.0
0.005
-0.005
0.005
0.005
-0.005
-0.005
0.0
-0.005
0.0
0.0
0.0
0.0
-0.01
-0.035
-0.03
-0.035
-0.02
-0.025
-0.035
-0.025
-0.015
-0.04
-0.005
0.165
0.475
0.74
0.625
0.04
-0.355
-0.345
-0.205
-0.085
-0.075
-0.085
-0.095
-0.085
-0.095
-0.095
-0.085
-0.08
-0.075
-0.075
-0.09
-0.095
-0.095
-0.095
-0.1
-0.095
-0.105
-0.115
-0.11
-0.11
-0.11
-0.11
-0.115
-0.115
-0.11
-0.09
-0.08
-0.075
-0.06
-0.065
-0.055
-0.035
-0.02
-0.02
0.0
0.0
0.0
-0.015
-0.02
-0.03
-0.025
-0.04
-0.04
-0.035
-0.04
-0.055
-0.05
-0.05
-0.035
-0.02
-0.035
-0.025
-0.04
-0.035
-0.025
-0.015
-0.025
-0.01
-0.02
-0.01
-0.01
-0.005
-0.005
-0.01
-0.01
-0.005
-0.005
0.0
-0.01
-0.01
0.0
-0.01
-0.005
-0.01
-0.005
-0.02
-0.01
-0.015
-0.015
-0.015
-0.02
-0.02
-0.03
-0.03
-0.015
-0.015
-0.02
-0.03
-0.01
-0.01
0.005
0.0
0.005
0.02
0.01
0.005
0.0
0.0
0.0
0.0
-0.005
-0.005
0.005
-0.015
-0.02
-0.04
-0.04
-0.04
-0.035
-0.035
-0.035
-0.04
-0.045
-0.05
-0.02
0.16
0.48
0.755
0.595
-0.04
-0.425
-0.405
-0.215
-0.12
-0.11
-0.12
-0.13
-0.135
-0.13
-0.13
-0.135
-0.135
-0.14
-0.145
-0.16
-0.16
-0.155
-0.155
-0.145
-0.165
-0.16
-0.155
-0.16
-0.155
-0.17
-0.16
-0.155
-0.15
-0.145
-0.155
-0.16
-0.15
-0.14
-0.13
-0.115
-0.095
-0.095
-0.095
-0.08
-0.085
-0.075
-0.065
-0.075
-0.08
-0.09
-0.105
-0.115
-0.115
-0.115
-0.12
-0.13
-0.13
-0.14
-0.13
-0.135
-0.125
-0.12
-0.12
-0.115
-0.11
-0.125
-0.11
-0.095
-0.085
-0.095
-0.095
-0.1
-0.1
-0.1
-0.1
-0.11
-0.11
-0.13
-0.12
-0.135
-0.135
-0.135
-0.14
-0.135
-0.145
-0.135
-0.135
-0.145
-0.145
-0.145
-0.15
-0.14
-0.13
-0.13
-0.14
-0.13
-0.145
-0.145
-0.145
-0.125
-0.115
-0.12
-0.12
-0.115
-0.105
-0.12
-0.125
-0.125
-0.105
-0.13
-0.125
-0.115
-0.11
-0.115
-0.125
-0.14
-0.145
-0.145
-0.14
-0.13
-0.145
-0.125
-0.15
-0.16
-0.06
0.215
0.525
0.69
0.23
-0.4
-0.495
-0.4
-0.24
-0.205
-0.195
-0.21
-0.2
-0.205
-0.2
-0.21
-0.215
-0.22
-0.23
-0.235
-0.225
-0.225
-0.235
-0.24
-0.235
-0.235
-0.235
-0.235
-0.23
-0.23
-0.235
-0.225
-0.21
-0.21
-0.205
-0.21
-0.2
-0.195
-0.18
-0.175
-0.145
-0.155
-0.145
-0.145
-0.13
-0.14
-0.14
-0.14
-0.145
-0.17
-0.17
-0.18
-0.17
-0.175
-0.185
-0.175
-0.175
-0.17
-0.175
-0.17
-0.16
-0.175
-0.19
-0.165
-0.175
-0.155
-0.165
-0.155
-0.155
-0.145
-0.145
-0.15
-0.145
-0.165
-0.155
-0.16
-0.15
-0.16
-0.155
-0.15
-0.16
-0.15
-0.155
-0.16
-0.155
-0.155
-0.16
-0.15
-0.155
-0.17
-0.16
-0.175
-0.17
-0.175
-0.175
-0.16
-0.16
-0.15
-0.145
-0.13
-0.12
-0.13
-0.115
-0.12
-0.125
-0.13
-0.12
-0.1
-0.12
-0.12
-0.13
-0.115
-0.145
-0.15
-0.155
-0.15
-0.15
-0.145
-0.15
-0.15
-0.155
-0.165
-0.15
-0.05
0.205
0.49
0.645
0.2
-0.4
-0.545
-0.435
-0.25
-0.205
-0.2
-0.215
-0.22
-0.22
-0.215
-0.225
-0.22
-0.235
-0.225
-0.235
-0.24
-0.24
-0.24
-0.24
-0.25
-0.245
-0.25
-0.25
-0.25
-0.25
-0.25
-0.25
-0.25
-0.265
-0.255
-0.255
-0.24
-0.235
-0.235
-0.205
-0.21
-0.195
-0.185
-0.18
-0.17
-0.16
-0.16
-0.16
-0.175
-0.17
-0.185
-0.195
-0.195
-0.205
-0.19
-0.21
-0.215
-0.22
-0.215
-0.22
-0.21
-0.21
-0.21
-0.2
-0.19
-0.19
-0.185
-0.19
-0.175
-0.16
-0.175
-0.17
-0.165
-0.17
-0.18
-0.185
-0.19
-0.185
-0.185
-0.19
-0.21
-0.21
-0.21
-0.21
-0.215
-0.215
-0.22
-0.215
-0.22
-0.225
-0.22
-0.21
-0.205
-0.23
-0.21
-0.215
-0.2
-0.215
-0.22
-0.22
-0.215
-0.2
-0.2
-0.195
-0.195
-0.185
-0.205
-0.21
-0.205
-0.2
-0.205
-0.21
-0.2
-0.18
-0.19
-0.215
-0.22
-0.215
-0.225
-0.22
-0.22
-0.22
-0.23
-0.225
-0.25
-0.145
0.115
0.41
0.63
0.33
-0.3
-0.57
-0.515
-0.37
-0.28
-0.285
-0.285
-0.28
-0.275
-0.275
-0.27
-0.285
-0.285
-0.285
-0.285
-0.295
-0.305
-0.315
-0.315
-0.305
-0.295
-0.3
-0.305
-0.3
-0.305
-0.305
-0.29
-0.295
-0.285
-0.265
-0.265
-0.25
-0.255
-0.235
-0.23
-0.22
-0.21
-0.19
-0.195
-0.175
-0.18
-0.19
-0.2
-0.195
-0.205
-0.215
-0.225
-0.235
-0.23
-0.245
-0.235
-0.225
-0.22
-0.225
-0.225
-0.225
-0.23
-0.22
-0.225
-0.225
-0.22
-0.22
-0.21
-0.205
-0.2
-0.205
-0.195
-0.2
-0.2
-0.2
-0.205
-0.22
-0.205
-0.2
-0.2
-0.21
-0.205
-0.21
-0.21
-0.21
-0.2
-0.215
-0.225
-0.22
-0.23
-0.225
-0.235
-0.215
-0.21
-0.21
-0.205
-0.21
-0.215
-0.215
-0.18
-0.18
-0.175
-0.17
-0.16
-0.185
-0.18
-0.19
-0.175
-0.175
-0.18
-0.18
-0.18
-0.19
-0.2
-0.22
-0.2
-0.21
-0.19
-0.2
-0.195
-0.21
-0.2
-0.19
-0.17
-0.035
0.24
0.525
0.51
-0.04
-0.51
-0.54
-0.385
-0.25
-0.21
-0.23
-0.235
-0.26
-0.225
-0.25
-0.24
-0.235
-0.245
-0.24
-0.25
-0.245
-0.255
-0.25
-0.25
-0.235
-0.24
-0.26
-0.25
-0.24
-0.26
-0.255
-0.245
-0.25
-0.255
-0.24
-0.23
-0.22
-0.205
-0.205
-0.2
-0.185
-0.175
-0.165
-0.14
-0.145
-0.145
-0.145
-0.145
-0.155
-0.16
-0.165
-0.18
-0.185
-0.2
-0.215
-0.22
-0.225
-0.215
-0.215
-0.215
-0.215
-0.21
-0.205
-0.215
-0.195
-0.185
-0.185
-0.175
-0.17
-0.175
-0.17
-0.175
-0.165
-0.18
-0.175
-0.18
-0.17
-0.185
-0.195
-0.195
-0.185
-0.19
-0.195
-0.195
-0.2
-0.205
-0.19
-0.195
-0.19
-0.185
-0.19
-0.185
-0.19
-0.195
-0.195
-0.19
-0.195
-0.2
-0.205
-0.19
-0.17
-0.175
-0.15
-0.165
-0.165
-0.17
-0.185
-0.185
-0.185
-0.18
-0.185
-0.165
-0.16
-0.175
-0.185
-0.195
-0.21
-0.205
-0.205
-0.205
-0.19
-0.195
-0.21
-0.225
-0.17
0.06
0.405
0.665
0.445
-0.22
-0.545
-0.51
-0.35
-0.265
-0.25
-0.26
-0.27
-0.265
-0.27
-0.265
-0.265
-0.27
-0.275
-0.28
-0.28
-0.285
-0.305
-0.31
-0.31
-0.3
-0.3
-0.295
-0.29
-0.285
-0.28
-0.28
-0.27
-0.26
-0.25
-0.24
-0.24
-0.245
-0.22
-0.215
-0.19
-0.2
-0.175
-0.17
-0.175
-0.17
-0.16
-0.16
-0.175
-0.195
-0.185
-0.185
-0.205
-0.21
-0.195
-0.2
-0.2
-0.195
-0.205
-0.19
-0.195
-0.19
-0.2
-0.19
-0.195
-0.19
-0.195
-0.2
-0.18
-0.18
-0.17
-0.175
-0.185
-0.19
-0.18
-0.185
-0.18
-0.185
-0.185
-0.175
-0.2
-0.195
-0.19
-0.195
-0.185
-0.19
-0.195
-0.195
-0.2
-0.205
-0.215
-0.22
-0.22
-0.21
-0.215
-0.215
-0.215
-0.21
-0.21
-0.17
-0.15
-0.175
-0.155
-0.15
-0.18
-0.19
-0.18
-0.17
-0.16
-0.185
-0.17
-0.195
-0.195
-0.205
-0.215
-0.21
-0.205
-0.205
-0.21
-0.195
-0.2
-0.2
-0.19
-0.06
0.23
0.51
0.575
0.03
-0.48
-0.505
-0.375
-0.26
-0.235
-0.24
-0.24
-0.25
-0.245
-0.25
-0.245
-0.24
-0.245
-0.25
-0.25
-0.255
-0.255
-0.24
-0.245
-0.255
-0.225
-0.235
-0.235
-0.245
-0.23
-0.235
-0.24
-0.235
-0.235
-0.235
-0.215
-0.205
-0.195
-0.19
-0.17
-0.155
-0.14
-0.13
-0.125
-0.105
-0.11
-0.105
-0.125
-0.12
-0.13
-0.155
-0.155
-0.14
-0.15
-0.145
-0.16
-0.155
-0.165
-0.155
-0.15
-0.15
-0.145
-0.135
-0.14
-0.135
-0.125
-0.12
-0.11
-0.11
-0.12
-0.12
-0.11
-0.115
-0.105
-0.11
-0.115
-0.105
-0.115
-0.14
-0.13
-0.13
-0.14
-0.135
-0.135
-0.15
-0.14
-0.145
-0.145
-0.145
-0.145
-0.135
-0.14
-0.145
-0.14
-0.14
-0.135
-0.14
-0.14
-0.125
-0.115
-0.125
-0.115
-0.125
-0.12
-0.125
-0.135
-0.13
-0.13
-0.125
-0.13
-0.125
-0.125
-0.125
-0.15
-0.155
-0.145
-0.145
-0.16
-0.155
-0.155
-0.155
-0.165
-0.16
-0.05
0.225
0.56
0.7
0.29
-0.345
-0.52
-0.43
-0.265
-0.22
-0.21
-0.22
-0.205
-0.21
-0.215
-0.215
-0.21
-0.215
-0.22
-0.235
-0.235
-0.24
-0.23
-0.24
-0.235
-0.24
-0.24
-0.24
-0.24
-0.24
-0.235
-0.24
-0.25
-0.235
-0.24
-0.225
-0.215
-0.205
-0.195
-0.18
-0.18
-0.155
-0.15
-0.135
-0.14
-0.135
-0.15
-0.145
-0.145
-0.16
-0.175
-0.175
-0.155
-0.195
-0.18
-0.185
-0.17
-0.175
-0.175
-0.18
-0.175
-0.17
-0.175
-0.17
-0.165
-0.165
-0.17
-0.16
-0.17
-0.17
-0.17
-0.175
-0.17
-0.175
-0.18
-0.18
-0.19
-0.19
-0.185
-0.195
-0.195
-0.2
-0.19
-0.2
-0.21
-0.215
-0.215
-0.21
-0.215
-0.22
-0.23
-0.235
-0.25
-0.245
-0.25
-0.25
-0.24
-0.235
-0.245
-0.24
-0.225
-0.225
-0.21
-0.205
-0.2
-0.215
-0.23
-0.23
-0.225
-0.22
-0.22
-0.23
-0.235
-0.23
-0.265
-0.255
-0.275
-0.275
-0.255
-0.28
-0.265
-0.26
-0.275
-0.275
-0.21
0.035
0.36
0.555
0.27
-0.375
-0.605
-0.54
-0.385
-0.325
-0.33
-0.34
-0.345
-0.345
-0.345
-0.33
-0.335
-0.34
-0.35
-0.345
-0.355
-0.345
-0.345
-0.34
-0.34
-0.335
-0.32
-0.315
-0.32
-0.325
-0.315
-0.32
-0.33
-0.315
-0.315
-0.32
-0.325
-0.315
-0.295
-0.29
-0.28
-0.27
-0.25
-0.235
-0.235
-0.22
-0.22
-0.225
-0.23
-0.225
-0.245
-0.25
-0.27
-0.26
-0.265
-0.26
-0.26
-0.265
-0.27
-0.26
-0.26
-0.255
-0.24
-0.255
-0.255
-0.235
-0.24
-0.225
-0.22
-0.215
-0.22
-0.22
-0.205
-0.215
-0.21
-0.21
-0.225
-0.225
-0.23
-0.24
-0.245
-0.245
-0.255
-0.255
-0.25
-0.24
-0.245
-0.255
-0.255
-0.255
-0.255
-0.245
-0.25
-0.265
-0.26
-0.255
-0.25
-0.255
-0.25
-0.235
-0.24
-0.245
-0.245
-0.235
-0.24
-0.25
-0.245
-0.24
-0.25
-0.245
-0.25
-0.255
-0.255
-0.27
-0.285
-0.285
-0.275
-0.295
-0.29
-0.275
-0.285
-0.275
-0.3
-0.27
-0.06
0.285
0.57
0.425
-0.23
-0.645
-0.625
-0.455
-0.35
-0.34
-0.36
-0.35
-0.335
-0.335
-0.335
-0.34
-0.35
-0.34
-0.345
-0.345
-0.34
-0.34
-0.35
-0.345
-0.345
-0.34
-0.355
-0.34
-0.34
-0.35
-0.34
-0.34
-0.335
-0.325
-0.315
-0.305
-0.285
-0.28
-0.275
-0.265
-0.245
-0.225
-0.225
-0.215
-0.21
-0.215
-0.21
-0.225
-0.22
-0.225
-0.22
-0.23
-0.235
-0.24
-0.235
-0.23
-0.255
-0.235
-0.23
-0.215
-0.215
-0.215
-0.21
-0.215
-0.205
-0.195
-0.21
-0.19
-0.195
-0.205
-0.195
-0.19
-0.2
-0.195
-0.2
-0.195
-0.2
-0.205
-0.21
-0.205
-0.195
-0.19
-0.205
-0.205
-0.2
-0.205
-0.205
-0.22
-0.2
-0.21
-0.22
-0.22
-0.22
-0.225
-0.21
-0.22
-0.215
-0.22
-0.22
-0.2
-0.19
-0.18
-0.18
-0.17
-0.165
-0.18
-0.17
-0.17
-0.175
-0.175
-0.17
-0.18
-0.175
-0.185
-0.21
-0.215
-0.22
-0.21
-0.215
-0.19
-0.2
-0.205
-0.195
-0.215
-0.135
0.165
0.485
0.7
0.355
-0.32
-0.525
-0.45
-0.285
-0.23
-0.235
-0.245
-0.23
-0.245
-0.245
-0.25
-0.24
-0.24
-0.235
-0.25
-0.24
-0.24
-0.25
-0.245
-0.225
-0.225
-0.22
-0.22
-0.2
-0.205
-0.205
-0.205
-0.2
-0.2
-0.185
-0.19
-0.18
-0.185
-0.17
-0.145
-0.14
-0.12
-0.12
-0.09
-0.095
-0.085
-0.095
-0.09
-0.1
-0.095
-0.105
-0.11
-0.12
-0.115
-0.105
-0.105
-0.125
-0.12
-0.105
-0.12
-0.12
-0.105
-0.105
-0.105
-0.085
-0.08
-0.075
-0.06
-0.065
-0.065
-0.055
-0.04
-0.05
-0.04
-0.045
-0.06
-0.06
-0.06
-0.065
-0.06
-0.065
-0.07
-0.07
-0.08
-0.08
-0.075
-0.075
-0.07
-0.08
-0.085
-0.08
-0.075
-0.08
-0.09
-0.075
-0.065
-0.06
-0.065
-0.05
-0.05
-0.03
-0.035
-0.04
-0.03
-0.015
-0.035
-0.04
-0.04
-0.035
-0.04
-0.035
-0.03
-0.025
-0.045
-0.065
-0.08
-0.065
-0.065
-0.06
-0.065
-0.05
-0.045
-0.06
-0.055
0.055
0.35
0.675
0.79
0.255
-0.34
-0.455
-0.32
-0.16
-0.11
-0.115
-0.12
-0.115
-0.115
-0.12
-0.125
-0.13
-0.12
-0.1
-0.11
-0.14
-0.14
-0.135
-0.14
-0.135
-0.135
-0.13
-0.135
-0.155
-0.145
-0.145
-0.145
-0.13
-0.12
-0.13
-0.12
-0.115
-0.105
-0.09
-0.075
-0.045
-0.03
-0.025
-0.015
0.0
0.0
-0.015
-0.01
-0.03
-0.02
-0.045
-0.045
-0.04
-0.045
-0.05
-0.05
-0.06
-0.055
-0.05
-0.045
-0.045
-0.045
-0.03
-0.025
-0.005
0.0
-0.01
0.0
0.0
0.0
0.0
0.005
0.0
-0.005
-0.005
-0.015
-0.015
-0.02
-0.02
-0.02
-0.025
-0.03
-0.035
-0.03
-0.04
-0.035
-0.04
-0.03
-0.035
-0.045
-0.045
-0.045
-0.05
-0.055
-0.05
-0.05
-0.055
-0.06
-0.065
-0.04
-0.03
-0.02
-0.025
-0.02
-0.03
-0.03
-0.035
-0.035
-0.03
-0.03
-0.03
-0.02
-0.02
-0.025
-0.03
-0.05
-0.055
-0.055
-0.055
-0.06
-0.07
-0.07
-0.07
-0.09
-0.08
0.04
0.35
0.685
0.82
0.33
-0.315
-0.415
-0.31
-0.15
-0.12
-0.13
-0.145
-0.13
-0.125
-0.12
-0.14
-0.13
-0.145
-0.155
-0.14
-0.15
-0.155
-0.145
-0.15
-0.15
-0.14
-0.15
-0.145
-0.15
-0.15
-0.14
-0.115
-0.12
-0.11
-0.115
-0.11
-0.095
-0.08
-0.075
-0.06
-0.045
-0.045
-0.035
-0.015
-0.015
0.0
-0.005
-0.03
-0.025
-0.035
-0.06
-0.06
-0.06
-0.055
-0.045
-0.045
-0.055
-0.035
-0.05
-0.05
-0.06
-0.045
-0.035
-0.04
-0.04
-0.045
-0.03
-0.02
-0.015
-0.01
-0.015
-0.01
-0.01
-0.015
-0.02
-0.005
-0.005
-0.02
-0.01
-0.02
-0.02
-0.025
-0.01
-0.015
-0.025
-0.025
-0.035
-0.04
-0.04
-0.03
-0.04
-0.04
-0.045
-0.04
-0.045
-0.055
-0.04
-0.035
-0.04
-0.015
-0.005
-0.005
-0.01
0.0
-0.02
-0.02
-0.025
-0.02
-0.035
-0.03
-0.01
-0.025
-0.035
-0.045
-0.055
-0.06
-0.05
-0.065
-0.055
-0.05
-0.045
-0.045
-0.05
-0.025
0.13
0.44
0.715
0.695
0.09
-0.39
-0.4
-0.25
-0.13
-0.13
-0.13
-0.14
-0.135
-0.14
-0.14
-0.145
-0.15
-0.15
-0.165
-0.155
-0.155
-0.15
-0.145
-0.155
-0.155
-0.16
-0.15
-0.155
-0.175
-0.17
-0.17
-0.175
-0.18
-0.16
-0.175
-0.155
-0.145
-0.14
-0.125
-0.11
-0.11
-0.1
-0.085
-0.065
-0.065
-0.07
-0.065
-0.085
-0.085
-0.09
-0.11
-0.12
-0.13
-0.14
-0.145
-0.15
-0.145
-0.155
-0.155
-0.155
-0.155
-0.145
-0.145
-0.155
-0.14
-0.125
-0.14
-0.135
-0.125
-0.13
-0.14
-0.135
-0.145
-0.15
-0.145
-0.16
-0.17
-0.18
-0.185
-0.19
-0.19
-0.195
-0.185
-0.195
-0.21
-0.215
-0.215
-0.215
-0.22
-0.22
-0.205
-0.22
-0.22
-0.23
-0.24
-0.24
-0.25
-0.24
-0.24
-0.22
-0.24
-0.245
-0.23
-0.24
-0.25
-0.26
-0.265
-0.265
-0.275
-0.28
-0.265
-0.275
-0.275
-0.3
-0.315
-0.315
-0.32
-0.32
-0.33
-0.335
-0.33
-0.35
-0.345
-0.29
-0.025
0.31
0.565
0.31
-0.38
-0.705
-0.67
-0.52
-0.445
-0.45
-0.46
-0.465
-0.455
-0.46
-0.46
-0.465
-0.465
-0.46
-0.48
-0.485
-0.485
-0.48
-0.49
-0.515
-0.5
-0.505
-0.505
-0.505
-0.51
-0.5
-0.505
-0.505
-0.51
-0.515
-0.51
-0.475
-0.475
-0.48
-0.455
-0.44
-0.435
-0.42
-0.415
-0.405
-0.405
-0.41
-0.43
-0.42
-0.44
-0.44
-0.45
-0.45
-0.46
-0.46
-0.46
-0.465
-0.46
-0.45
-0.45
-0.445
-0.44
-0.44
-0.435
-0.42
-0.42
-0.425
-0.425
-0.42
-0.42
-0.415
-0.43
-0.425
-0.435
-0.42
-0.425
-0.425
-0.44
-0.445
-0.45
-0.45
-0.455
-0.445
-0.43
-0.445
-0.44
-0.455
-0.44
-0.44
-0.455
-0.44
-0.45
-0.45
-0.44
-0.46
-0.455
-0.46
-0.46
-0.445
-0.425
-0.43
-0.42
-0.425
-0.425
-0.425
-0.435
-0.42
-0.42
-0.42
-0.41
-0.425
-0.425
-0.43
-0.45
-0.455
-0.455
-0.465
-0.46
-0.45
-0.45
-0.44
-0.455
-0.46
-0.42
-0.225
0.1
0.39
0.28
-0.35
-0.74
-0.725
-0.575
-0.485
-0.47
-0.48
-0.46
-0.48
-0.485
-0.485
-0.495
-0.49
-0.5
-0.49
-0.485
-0.485
-0.49
-0.505
-0.48
-0.485
-0.49
-0.48
-0.465
-0.455
-0.46
-0.46
-0.46
-0.455
-0.445
-0.445
-0.435
-0.435
-0.435
-0.42
-0.4
-0.39
-0.375
-0.37
-0.35
-0.345
-0.355
-0.355
-0.365
-0.36
-0.35
-0.36
-0.355
-0.355
-0.36
-0.36
-0.35
-0.345
-0.35
-0.335
-0.34
-0.345
-0.33
-0.33
-0.32
-0.305
-0.305
-0.3
-0.285
-0.3
-0.275
-0.28
-0.285
-0.275
-0.27
-0.275
-0.275
-0.275
-0.275
-0.275
-0.265
-0.28
-0.3
-0.3
-0.29
-0.29
-0.29
-0.29
-0.295
-0.29
-0.285
-0.285
-0.29
-0.3
-0.285
-0.29
-0.275
-0.27
-0.265
-0.255
-0.25
-0.245
-0.245
-0.25
-0.265
-0.26
-0.25
-0.265
-0.26
-0.255
-0.245
-0.235
-0.25
-0.265
-0.285
-0.28
-0.28
-0.285
-0.285
-0.27
-0.27
-0.265
-0.28
-0.235
-0.055
0.33
0.635
0.53
-0.125
-0.585
-0.585
-0.455
-0.355
-0.33
-0.345
-0.345
-0.34
-0.345
-0.35
-0.33
-0.35
-0.345
-0.34
-0.33
-0.335
-0.335
-0.33
-0.34
-0.34
-0.325
-0.33
-0.32
-0.335
-0.33
-0.33
-0.325
-0.32
-0.31
-0.315
-0.295
-0.29
-0.28
-0.27
-0.26
-0.235
-0.205
-0.205
-0.18
-0.18
-0.175
-0.19
-0.19
-0.195
-0.2
-0.2
-0.21
-0.205
-0.21
-0.205
-0.205
-0.195
-0.2
-0.195
-0.18
-0.19
-0.175
-0.175
-0.17
-0.155
-0.135
-0.115
-0.125
-0.12
-0.115
-0.115
-0.12
-0.115
-0.11
-0.11
-0.125
-0.125
-0.12
-0.125
-0.125
-0.13
-0.14
-0.13
-0.12
-0.135
-0.125
-0.125
-0.125
-0.115
-0.12
-0.11
-0.115
-0.125
-0.12
-0.12
-0.105
-0.105
-0.105
-0.09
-0.075
-0.085
-0.085
-0.07
-0.065
-0.09
-0.09
-0.095
-0.075
-0.095
-0.085
-0.07
-0.075
-0.095
-0.1
-0.105
-0.09
-0.105
-0.105
-0.1
-0.09
-0.105
-0.1
-0.095
0.06
0.38
0.68
0.66
0.065
-0.405
-0.415
-0.26
-0.14
-0.13
-0.115
-0.12
-0.125
-0.13
-0.135
-0.125
-0.12
-0.125
-0.14
-0.135
-0.135
-0.15
-0.145
-0.13
-0.13
-0.135
-0.14
-0.13
-0.125
-0.135
-0.135
-0.125
-0.105
-0.11
-0.105
-0.09
-0.08
-0.075
-0.06
-0.055
-0.04
-0.02
-0.01
-0.01
0.0
0.0
0.0
-0.015
-0.02
-0.015
-0.01
-0.02
-0.03
-0.03
-0.03
-0.025
-0.015
-0.02
-0.035
-0.02
-0.01
-0.005
0.0
0.005
0.0
0.005
0.0
0.0
0.005
0.015
0.02
0.025
0.025
0.015
0.025
0.025
0.02
0.02
0.025
0.04
0.02
0.03
0.025
0.025
0.025
0.02
0.02
0.015
0.015
0.01
0.0
0.02
0.005
0.005
0.005
0.0
0.005
0.015
0.03
0.035
0.04
0.045
0.05
0.035
0.035
0.035
0.035
0.03
0.02
0.025
0.015
0.0
-0.01
-0.01
-0.01
-0.005
0.0
-0.01
-0.005
-0.01
-0.01
0.015
0.24
0.615
0.905
0.73
0.045
-0.33
-0.32
-0.145
-0.055
-0.06
-0.065
-0.08
-0.08
-0.065
-0.075
-0.08
-0.07
-0.075
-0.07
-0.08
-0.09
-0.085
-0.08
-0.09
-0.08
-0.075
-0.08
-0.08
-0.07
-0.07
-0.075
-0.085
-0.07
-0.08
-0.07
-0.07
-0.06
-0.05
-0.045
-0.015
-0.01
0.01
0.015
0.025
0.025
0.035
0.03
0.03
0.035
0.01
0.005
0.01
0.0
0.0
0.005
0.01
0.005
0.015
0.015
0.02
0.03
0.03
0.035
0.035
0.045
0.045
0.04
0.06
0.075
0.085
0.07
0.075
0.08
0.07
0.075
0.075
0.08
0.085
0.085
0.07
0.065
0.075
0.06
0.075
0.07
0.08
0.07
0.065
0.06
0.075
0.075
0.08
0.07
0.08
0.075
0.08
0.09
0.1
0.115
0.1
0.11
0.12
0.1
0.1
0.1
0.105
0.115
0.11
0.11
0.115
0.11
0.105
0.095
0.085
0.095
0.095
0.1
0.105
0.105
0.095
0.095
0.105
0.275
0.595
0.89
0.845
0.245
-0.21
-0.235
-0.095
0.02
0.055
0.04
0.035
0.04
0.045
0.05
0.03
0.035
0.055
0.045
0.045
0.045
0.05
0.035
0.035
0.02
0.03
0.03
0.03
0.03
0.03
0.02
0.03
0.04
0.035
0.04
0.04
0.06
0.055
0.07
0.085
0.11
0.11
0.13
0.155
0.15
0.16
0.145
0.145
0.135
0.125
0.12
0.1
0.105
0.11
0.105
0.105
0.105
0.115
0.1
0.11
0.1
0.11
0.125
0.125
0.135
0.145
0.15
0.14
0.15
0.155
0.165
0.155
0.16
0.15
0.145
0.14
0.14
0.135
0.135
0.13
0.125
0.14
0.13
0.115
0.155
0.135
0.14
0.14
0.13
0.14
0.13
0.135
0.13
0.115
0.12
0.125
0.125
0.14
0.155
0.15
0.15
0.17
0.16
0.145
0.145
0.155
0.15
0.175
0.155
0.16
0.175
0.155
0.135
0.145
0.145
0.135
0.13
0.125
0.125
0.12
0.105
0.12
0.21
0.5
0.86
1.03
0.515
-0.135
-0.245
-0.1
0.035
0.065
0.06
0.05
0.045
0.045
0.055
0.045
0.035
0.03
0.02
0.025
0.025
0.02
0.02
0.01
0.01
0.005
0.01
0.0
0.02
0.03
0.015
0.025
0.025
0.035
0.035
0.045
0.035
0.05
0.07
0.07
0.07
0.09
0.11
0.13
0.13
0.13
0.135
0.115
0.115
0.1
0.105
0.1
0.1
0.09
0.095
0.09
0.09
0.105
0.085
0.095
0.1
0.095
0.1
0.1
0.1
0.105
0.11
0.115
0.115
0.115
0.125
0.12
0.125
0.125
0.125
0.125
0.11
0.12
0.12
0.12
0.115
0.105
0.115
0.11
0.1
0.1
0.1
0.085
0.09
0.1
0.095
0.085
0.08
0.09
0.085
0.09
0.11
0.12
0.125
0.135
0.13
0.135
0.125
0.11
0.115
0.115
0.115
0.11
0.11
0.125
0.11
0.1
0.08
0.09
0.065
0.075
0.09
0.095
0.105
0.1
0.095
0.155
0.405
0.71
0.9
0.55
-0.075
-0.25
-0.17
-0.01
0.045
0.025
0.035
0.035
0.035
0.035
0.04
0.03
0.035
0.015
0.02
0.035
0.025
0.025
0.025
0.035
0.02
0.025
0.03
0.025
0.03
0.015
0.005
0.02
0.015
0.025
0.025
0.035
0.035
0.04
0.065
0.08
0.09
0.115
0.135
0.13
0.125
0.125
0.12
0.1
0.095
0.09
0.09
0.075
0.055
0.07
0.07
0.06
0.07
0.075
0.055
0.06
0.065
0.06
0.06
0.075
0.08
0.09
0.095
0.095
0.085
0.095
0.08
0.08
0.075
0.075
0.08
0.065
0.07
0.07
0.055
0.045
0.06
0.05
0.045
0.04
0.04
0.04
0.045
0.055
0.05
0.04
0.04
0.045
0.035
0.035
0.035
0.04
0.04
0.055
0.06
0.055
0.055
0.05
0.04
0.03
0.025
0.035
0.03
0.02
0.02
0.03
0.025
0.015
0.0
0.0
0.0
-0.015
-0.015
-0.015
-0.01
-0.035
-0.035
0.03
0.295
0.63
0.85
0.46
-0.21
-0.41
-0.31
-0.155
-0.12
-0.13
-0.125
-0.13
-0.13
-0.135
-0.14
-0.155
-0.155
-0.155
-0.155
-0.175
-0.18
-0.18
-0.19
-0.2
-0.215
-0.21
-0.215
-0.22
-0.21
-0.215
-0.22
-0.22
-0.225
-0.22
-0.22
-0.215
-0.195
-0.18
-0.175
-0.175
-0.18
-0.17
-0.17
-0.155
-0.155
-0.16
-0.18
-0.18
-0.205
-0.2
-0.215
-0.21
-0.225
-0.23
-0.22
-0.23
-0.25
-0.25
-0.24
-0.245
-0.24
-0.225
-0.225
-0.225
-0.22
-0.225
-0.225
-0.225
-0.23
-0.225
-0.245
-0.245
-0.245
-0.25
-0.26
-0.26
-0.275
-0.27
-0.275
-0.295
-0.29
-0.29
-0.285
-0.285
-0.29
-0.29
-0.3
-0.295
-0.305
-0.295
-0.3
-0.315
-0.3
-0.325
-0.315
-0.315
-0.29
-0.285
-0.29
-0.295
-0.29
-0.285
-0.295
-0.3
-0.295
-0.28
-0.28
-0.285
-0.28
-0.29
-0.3
-0.315
-0.315
-0.31
-0.32
-0.32
-0.32
-0.32
-0.335
-0.33
-0.305
-0.115
0.21
0.485
0.405
-0.27
-0.665
-0.62
-0.465
-0.38
-0.37
-0.37
-0.365
-0.38
-0.375
-0.375
-0.39
-0.38
-0.39
-0.375
-0.385
-0.4
-0.4
-0.385
-0.4
-0.39
-0.395
-0.395
-0.39
-0.4
-0.405
-0.4
-0.375
-0.375
-0.37
-0.365
-0.355
-0.36
-0.33
-0.34
-0.32
-0.305
-0.3
-0.29
-0.295
-0.27
-0.265
-0.275
-0.29
-0.29
-0.305
-0.32
-0.32
-0.32
-0.32
-0.32
-0.315
-0.315
-0.31
-0.305
-0.315
-0.31
-0.3
-0.285
-0.295
-0.3
-0.285
-0.28
-0.285
-0.28
-0.28
-0.27
-0.27
-0.28
-0.28
-0.275
-0.285
-0.29
-0.295
-0.3
-0.28
-0.28
-0.285
-0.285
-0.28
-0.295
-0.3
-0.305
-0.29
-0.305
-0.315
-0.315
-0.31
-0.305
-0.315
-0.315
-0.31
-0.295
-0.295
-0.29
-0.29
-0.285
-0.28
-0.285
-0.295
-0.275
-0.27
-0.275
-0.275
-0.27
-0.265
-0.265
-0.285
-0.295
-0.295
-0.31
-0.31
-0.3
-0.305
-0.3
-0.295
-0.31
-0.29
-0.145
0.18
0.5
0.56
-0.015
-0.58
-0.655
-0.505
-0.365
-0.35
-0.35
-0.355
-0.355
-0.37
-0.345
-0.355
-0.365
-0.365
-0.38
-0.37
-0.375
-0.38
-0.39
-0.385
-0.38
-0.385
-0.385
-0.375
-0.38
-0.38
-0.37
-0.365
-0.355
-0.355
-0.34
-0.34
-0.34
-0.325
-0.315
-0.295
-0.28
-0.27
-0.26
-0.255
-0.255
-0.235
-0.255
-0.26
-0.27
-0.275
-0.28
-0.28
-0.285
-0.3
-0.29
-0.27
-0.265
-0.28
-0.27
-0.275
-0.275
-0.265
-0.255
-0.26
-0.24
-0.25
-0.25
-0.245
-0.25
-0.225
-0.24
-0.23
-0.245
-0.235
-0.245
-0.24
-0.245
-0.25
-0.25
-0.24
-0.235
-0.245
-0.245
-0.255
-0.25
-0.25
-0.26
-0.255
-0.26
-0.26
-0.265
-0.275
-0.26
-0.265
-0.26
-0.265
-0.255
-0.25
-0.23
-0.23
-0.225
-0.23
-0.21
-0.23
-0.23
-0.23
-0.23
-0.225
-0.22
-0.22
-0.22
-0.225
-0.24
-0.265
-0.255
-0.25
-0.255
-0.255
-0.25
-0.26
-0.24
-0.26
-0.235
-0.035
0.3
0.59
0.515
-0.09
-0.535
-0.55
-0.4
-0.3
-0.27
-0.28
-0.305
-0.295
-0.295
-0.29
-0.305
-0.305
-0.31
-0.31
-0.32
-0.31
-0.315
-0.33
-0.325
-0.31
-0.31
-0.3
-0.315
-0.305
-0.295
-0.295
-0.3
-0.295
-0.295
-0.285
-0.28
-0.28
-0.265
-0.255
-0.255
-0.24
-0.225
-0.215
-0.2
-0.205
-0.185
-0.195
-0.21
-0.225
-0.22
-0.225
-0.21
-0.215
-0.24
-0.22
-0.24
-0.24
-0.24
-0.23
-0.225
-0.22
-0.215
-0.235
-0.22
-0.205
-0.205
-0.2
-0.185
-0.195
-0.185
-0.185
-0.19
-0.185
-0.19
-0.175
-0.175
-0.175
-0.18
-0.195
-0.195
-0.19
-0.185
-0.19
-0.19
-0.195
-0.205
-0.195
-0.2
-0.2
-0.2
-0.215
-0.21
-0.195
-0.215
-0.21
-0.21
-0.195
-0.175
-0.16
-0.16
-0.17
-0.16
-0.15
-0.165
-0.16
-0.145
-0.15
-0.155
-0.165
-0.155
-0.16
-0.165
-0.18
-0.18
-0.18
-0.185
-0.165
-0.165
-0.18
-0.17
-0.175
-0.175
-0.065
0.22
0.55
0.72
0.26
-0.375
-0.545
-0.425
-0.265
-0.22
-0.22
-0.225
-0.23
-0.22
-0.22
-0.225
-0.22
-0.23
-0.23
-0.23
-0.24
-0.245
-0.23
-0.235
-0.23
-0.235
-0.22
-0.23
-0.215
-0.235
-0.21
-0.215
-0.21
-0.21
-0.21
-0.19
-0.195
-0.185
-0.17
-0.14
-0.13
-0.11
-0.105
-0.105
-0.105
-0.085
-0.08
-0.095
-0.09
-0.105
-0.125
-0.135
-0.125
-0.13
-0.135
-0.145
-0.14
-0.145
-0.135
-0.135
-0.14
-0.12
-0.12
-0.12
-0.1
-0.105
-0.11
-0.08
-0.095
-0.075
-0.07
-0.07
-0.075
-0.065
-0.085
-0.075
-0.07
-0.085
-0.09
-0.085
-0.095
-0.09
-0.085
-0.1
-0.095
-0.09
-0.09
-0.095
-0.095
-0.1
-0.09
-0.085
-0.07
-0.065
-0.07
-0.065
-0.055
-0.055
-0.04
-0.02
-0.02
-0.025
-0.02
-0.01
-0.02
-0.025
-0.02
-0.015
-0.015
-0.005
-0.02
0.0
-0.01
-0.03
-0.035
-0.02
-0.01
-0.025
-0.01
-0.005
-0.01
-0.01
-0.025
0.005
0.21
0.545
0.855
0.8
0.15
-0.3
-0.315
-0.17
-0.05
-0.04
-0.045
-0.04
-0.04
-0.03
-0.035
-0.025
-0.015
-0.015
-0.01
-0.015
-0.01
-0.01
-0.025
-0.02
-0.015
-0.025
-0.025
-0.02
-0.015
-0.01
-0.01
0.0
-0.005
0.0
0.015
0.015
0.03
0.05
0.075
0.1
0.105
0.115
0.125
0.145
0.145
0.15
0.14
0.135
0.105
0.08
0.075
0.09
0.105
0.105
0.11
0.115
0.12
0.125
0.115
0.105
0.115
0.12
0.145
0.135
0.165
0.14
0.155
0.15
0.145
0.15
0.14
0.16
0.145
0.13
0.215
0.475
0.775
0.98
0.66
-0.03
-0.19
-0.035
0.075
0.09
0.075
0.09
0.085
0.09
0.08
0.085
0.08
0.085
0.08
0.095
0.075
0.08
0.065
0.07
0.065
0.07
0.07
0.055
0.05
0.07
0.06
0.07
0.075
0.085
0.085
0.095
0.11
0.13
0.145
0.16
0.165
0.18
0.18
0.18
0.17
0.165
0.15
0.135
0.125
0.14
0.135
0.125
0.13
0.125
0.13
0.135
0.135
0.145
0.165
0.17
0.17
0.19
0.19
0.19
0.18
0.175
0.18
0.175
0.175
0.17
0.17
0.155
0.175
0.16
0.165
0.16
0.165
0.15
0.145
0.15
0.14
0.145
0.155
0.15
0.16
0.135
0.135
0.15
0.14
0.13
0.14
0.135
0.125
0.125
0.12
0.115
0.115
0.12
0.105
0.11
0.105
0.11
0.11
0.115
0.105
0.115
0.11
0.12
0.115
0.11
0.095
0.105
0.1
0.1
0.1
0.095
0.1
0.09
0.09
0.08
0.075
0.095
0.09
0.085
0.075
0.07
0.07
0.07
0.09
0.09
0.075
0.075
0.08
0.075
0.09
0.095
0.095
0.095
0.1
0.08
0.065
0.075
0.085
0.075
0.07
0.07
0.07
0.07
0.06
0.035
0.03
0.015
0.045
0.05
0.04
0.03
0.025
0.0
0.07
0.31
0.65
0.93
0.71
0.005
-0.34
-0.305
-0.15
-0.065
-0.06
-0.055
-0.07
-0.07
-0.07
-0.08
-0.08
-0.09
-0.065
-0.065
-0.08
-0.075
-0.075
-0.09
-0.085
-0.1
-0.105
-0.095
-0.11
-0.11
-0.11
-0.095
-0.1
-0.095
-0.08
-0.065
-0.065
-0.06
-0.05
-0.05
-0.025
-0.01
0.0
0.025
0.035
0.05
0.055
0.065
0.07
0.07
0.035
0.035
0.045
0.04
0.03
0.025
0.02
0.015
0.03
0.025
0.03
0.04
0.03
0.03
0.05
0.06
0.065
0.065
0.07
0.07
0.06
0.055
0.06
0.055
0.045
0.045
0.035
0.03
0.03
0.02
0.03
0.02
0.01
0.025
0.005
0.01
0.015
0.01
0.0
0.015
0.005
0.01
0.0
0.0
0.0
0.0
-0.005
-0.01
-0.015
-0.005
-0.02
-0.02
-0.015
-0.01
0.01
0.01
0.01
0.01
0.02
0.015
0.01
0.01
0.025
0.02
0.015
0.01
0.005
0.0
-0.01
-0.025
-0.02
-0.025
-0.03
-0.03
-0.02
-0.025
-0.02
-0.035
0.03
0.31
0.64
0.83
0.345
-0.285
-0.4
-0.26
-0.085
-0.06
-0.075
-0.075
-0.07
-0.07
-0.08
-0.085
-0.09
-0.095
-0.095
-0.095
-0.1
-0.1
-0.11
-0.11
-0.11
-0.115
-0.11
-0.105
-0.105
-0.105
-0.11
-0.1
-0.11
-0.09
-0.09
-0.085
-0.085
-0.08
-0.065
-0.055
-0.045
-0.025
-0.015
-0.005
-0.005
0.005
0.0
0.015
-0.01
-0.01
-0.015
-0.01
-0.02
-0.02
-0.025
-0.045
-0.035
-0.045
-0.04
-0.045
-0.045
-0.045
-0.045
-0.045
-0.035
-0.01
-0.025
-0.025
-0.02
-0.025
-0.02
-0.02
-0.005
-0.02
-0.005
-0.015
-0.02
-0.03
-0.03
-0.04
-0.045
-0.035
-0.045
-0.055
-0.05
-0.05
-0.055
-0.06
-0.06
-0.05
-0.07
-0.075
-0.06
-0.08
-0.085
-0.085
-0.085
-0.075
-0.08
-0.08
-0.075
-0.075
-0.08
-0.06
-0.07
-0.06
-0.055
-0.09
-0.09
-0.1
-0.085
-0.085
-0.075
-0.08
-0.08
-0.085
-0.105
-0.115
-0.12
-0.12
-0.115
-0.11
-0.11
-0.12
-0.115
-0.13
-0.075
0.125
0.47
0.78
0.59
-0.11
-0.49
-0.425
-0.255
-0.2
-0.19
-0.195
-0.195
-0.185
-0.19
-0.195
-0.2
-0.19
-0.185
-0.19
-0.2
-0.2
-0.195
-0.195
-0.21
-0.205
-0.205
-0.215
-0.225
-0.23
-0.22
-0.21
-0.21
-0.2
-0.21
-0.2
-0.195
-0.185
-0.18
-0.17
-0.145
-0.125
-0.11
-0.11
-0.09
-0.07
-0.07
-0.075
-0.08
-0.095
-0.1
-0.105
-0.11
-0.11
-0.115
-0.11
-0.115
-0.115
-0.115
-0.115
-0.12
-0.105
-0.1
-0.1
-0.08
-0.06
-0.075
-0.065
-0.07
-0.065
-0.06
-0.055
-0.055
-0.065
-0.085
-0.075
-0.075
-0.08
-0.085
-0.085
-0.09
-0.1
-0.085
-0.09
-0.085
-0.08
-0.09
-0.085
-0.08
-0.09
-0.095
-0.1
-0.1
-0.1
-0.095
-0.115
-0.11
-0.11
-0.105
-0.11
-0.085
-0.085
-0.075
-0.075
-0.07
-0.065
-0.065
-0.08
-0.065
-0.065
-0.055
-0.06
-0.07
-0.05
-0.065
-0.075
-0.095
-0.09
-0.085
-0.1
-0.09
-0.095
-0.095
-0.095
-0.1
-0.07
0.09
0.41
0.685
0.58
-0.05
-0.445
-0.405
-0.245
-0.145
-0.12
-0.135
-0.12
-0.12
-0.13
-0.125
-0.14
-0.145
-0.145
-0.14
-0.145
-0.14
-0.15
-0.15
-0.14
-0.14
-0.155
-0.12
-0.125
-0.105
-0.13
-0.115
-0.12
-0.12
-0.105
-0.1
-0.105
-0.08
-0.095
-0.08
-0.07
-0.06
-0.04
-0.01
0.0
0.005
0.0
0.0
0.0
-0.005
-0.005
-0.005
-0.005
0.0
-0.01
-0.005
-0.02
-0.01
-0.005
-0.015
-0.01
-0.015
-0.02
-0.015
-0.01
-0.005
-0.01
0.0
0.0
0.0
0.01
0.005
0.015
0.02
0.01
0.01
0.015
0.01
0.01
0.0
0.0
0.0
-0.005
0.0
-0.01
-0.005
-0.02
-0.015
-0.02
-0.025
-0.025
-0.03
-0.025
-0.02
-0.025
-0.035
-0.025
-0.035
-0.03
-0.04
-0.005
0.0
0.0
0.0
0.0
0.005
-0.005
-0.015
-0.015
-0.01
-0.01
-0.01
-0.01
-0.015
-0.02
-0.05
-0.055
-0.05
-0.05
-0.055
-0.04
-0.035
-0.04
-0.04
-0.07
0.015
0.29
0.63
0.84
0.42
-0.245
-0.415
-0.33
-0.175
-0.14
-0.13
-0.145
-0.15
-0.145
-0.15
-0.15
-0.16
-0.155
-0.155
-0.15
-0.15
-0.16
-0.16
-0.155
-0.165
-0.175
-0.16
-0.165
-0.17
-0.165
-0.165
-0.17
-0.16
-0.165
-0.15
-0.145
-0.135
-0.145
-0.115
-0.11
-0.095
-0.085
-0.08
-0.05
-0.04
-0.035
-0.04
-0.035
-0.05
-0.055
-0.075
-0.075
-0.08
-0.09
-0.09
-0.09
-0.08
-0.08
-0.075
-0.065
-0.075
-0.055
-0.065
-0.07
-0.06
-0.05
-0.045
-0.04
-0.045
-0.035
-0.04
-0.025
-0.035
-0.035
-0.045
-0.05
-0.04
-0.055
-0.065
-0.065
-0.055
-0.065
-0.07
-0.08
-0.065
-0.075
-0.075
-0.08
-0.065
-0.075
-0.065
-0.08
-0.075
-0.075
-0.08
-0.085
-0.085
-0.1
-0.09
-0.09
-0.075
-0.07
-0.08
-0.07
-0.075
-0.085
-0.09
-0.09
-0.095
-0.1
-0.105
-0.095
-0.09
-0.09
-0.115
-0.12
-0.115
-0.13
-0.125
-0.13
-0.125
-0.14
-0.14
-0.145
-0.055
0.215
0.555
0.705
0.26
-0.36
-0.49
-0.38
-0.235
-0.195
-0.195
-0.21
-0.2
-0.21
-0.2
-0.195
-0.215
-0.215
-0.215
-0.22
-0.225
-0.22
-0.22
-0.24
-0.235
-0.23
-0.24
-0.235
-0.23
-0.23
-0.23
-0.24
-0.215
-0.215
-0.21
-0.2
-0.205
-0.195
-0.18
-0.16
-0.145
-0.145
-0.125
-0.115
-0.1
-0.105
-0.115
-0.125
-0.125
-0.13
-0.13
-0.15
-0.14
-0.135
-0.13
-0.14
-0.145
-0.13
-0.125
-0.1
-0.115
-0.105
-0.09
-0.1
-0.1
-0.095
-0.085
-0.08
-0.075
-0.08
-0.095
-0.08
-0.075
-0.075
-0.08
-0.08
-0.09
-0.09
-0.07
-0.08
-0.085
-0.085
-0.07
-0.06
-0.075
-0.075
-0.085
-0.07
-0.08
-0.09
-0.08
-0.105
-0.09
-0.095
-0.08
-0.08
-0.08
-0.07
-0.05
-0.055
-0.055
-0.04
-0.055
-0.075
-0.07
-0.055
-0.065
-0.065
-0.055
-0.055
-0.07
-0.09
-0.095
-0.105
-0.115
-0.115
-0.12
-0.12
-0.125
-0.11
-0.125
-0.125
0.0
0.325
0.625
0.65
0.015
-0.51
-0.51
-0.325
-0.21
-0.19
-0.215
-0.215
-0.225
-0.23
-0.225
-0.245
-0.255
-0.25
-0.275
-0.285
-0.285
-0.295
-0.3
-0.315
-0.31
-0.315
-0.32
-0.335
-0.34
-0.32
-0.33
-0.335
-0.335
-0.335
-0.335
-0.335
-0.32
-0.32
-0.315
-0.32
-0.3
-0.31
-0.31
-0.285
-0.295
-0.295
-0.305
-0.315
-0.32
-0.335
-0.345
-0.365
-0.355
-0.365
-0.365
-0.37
-0.37
-0.385
-0.385
-0.39
-0.4
-0.395
-0.38
-0.385
-0.4
-0.4
-0.41
-0.415
-0.415
-0.415
-0.415
-0.425
-0.435
-0.445
-0.455
-0.465
-0.47
-0.475
-0.465
-0.495
-0.5
-0.505
-0.52
-0.53
-0.525
-0.535
-0.55
-0.56
-0.565
-0.575
-0.585
-0.61
-0.605
-0.605
-0.605
-0.625
-0.615
-0.62
-0.635
-0.62
-0.615
-0.63
-0.625
-0.615
-0.635
-0.66
-0.655
-0.655
-0.655
-0.66
-0.67
-0.68
-0.68
-0.705
-0.725
-0.745
-0.745
-0.755
-0.755
-0.76
-0.76
-0.77
-0.795
-0.785
-0.64
-0.315
0.025
0.055
-0.57
-1.09
-1.12
-1.0
-0.895
-0.88
-0.9
-0.905
-0.91
-0.9
-0.91
-0.915
-0.93
-0.93
-0.94
-0.945
-0.94
-0.97
-0.95
-0.955
-0.97
-0.975
-0.965
-0.975
-0.98
-0.985
-0.98
-0.98
-0.985
-0.98
-0.96
-0.97
-0.97
-0.97
-0.95
-0.955
-0.935
-0.93
-0.92
-0.925
-0.92
-0.905
-0.915
-0.925
-0.93
-0.93
-0.925
-0.925
-0.935
-0.95
-0.945
-0.95
-0.94
-0.94
-0.95
-0.95
-0.955
-0.955
-0.95
-0.935
-0.94
-0.92
-0.91
-0.925
-0.92
-0.91
-0.915
-0.92
-0.905
-0.895
-0.91
-0.895
-0.905
-0.9
-0.905
-0.91
-0.9
-0.91
-0.905
-0.91
-0.91
-0.92
-0.92
-0.93
-0.925
-0.935
-0.925
-0.92
-0.92
-0.915
-0.92
-0.92
-0.92
-0.9
-0.895
-0.875
-0.865
-0.865
-0.855
-0.87
-0.875
-0.87
-0.86
-0.865
-0.86
-0.86
-0.86
-0.865
-0.86
-0.88
-0.865
-0.88
-0.885
-0.88
-0.87
-0.87
-0.87
-0.875
-0.845
-0.705
-0.405
-0.085
-0.075
-0.66
-1.14
-1.16
-1.015
-0.89
-0.885
-0.875
-0.895
-0.885
-0.9
-0.895
-0.88
-0.89
-0.88
-0.885
-0.88
-0.87
-0.87
-0.855
-0.86
-0.855
-0.855
-0.86
-0.845
-0.84
-0.84
-0.84
-0.815
-0.82
-0.82
-0.805
-0.805
-0.79
-0.78
-0.76
-0.76
-0.725
-0.715
-0.705
-0.695
-0.7
-0.68
-0.68
-0.675
-0.68
-0.675
-0.68
-0.69
-0.69
-0.69
-0.69
-0.685
-0.68
-0.68
-0.685
-0.675
-0.67
-0.655
-0.66
-0.66
-0.645
-0.64
-0.64
-0.635
-0.615
-0.61
-0.605
-0.59
-0.57
-0.58
-0.58
-0.57
-0.57
-0.57
-0.56
-0.575
-0.575
-0.565
-0.565
-0.565
-0.55
-0.55
-0.55
-0.56
-0.55
-0.54
-0.55
-0.545
-0.54
-0.525
-0.525
-0.525
-0.51
-0.48
-0.47
-0.49
-0.475
-0.46
-0.47
-0.49
-0.485
-0.47
-0.47
-0.465
-0.465
-0.445
-0.46
-0.46
-0.48
-0.47
-0.48
-0.465
-0.47
-0.45
-0.445
-0.44
-0.45
-0.415
-0.23
0.13
0.455
0.435
-0.2
-0.705
-0.745
-0.605
-0.5
-0.475
-0.48
-0.48
-0.47
-0.49
-0.475
-0.47
-0.45
-0.46
-0.45
-0.455
-0.45
-0.455
-0.455
-0.445
-0.435
-0.435
-0.44
-0.435
-0.44
-0.425
-0.425
-0.415
-0.405
-0.4
-0.395
-0.385
-0.375
-0.36
-0.355
-0.325
-0.3
-0.295
-0.27
-0.265
-0.245
-0.255
-0.245
-0.25
-0.25
-0.255
-0.26
-0.275
-0.27
-0.265
-0.27
-0.26
-0.255
-0.24
-0.235
-0.24
-0.235
-0.23
-0.21
-0.19
-0.185
-0.17
-0.17
-0.17
-0.15
-0.145
-0.145
-0.14
-0.135
-0.135
-0.125
-0.14
-0.13
-0.135
-0.13
-0.115
-0.13
-0.12
-0.125
-0.105
-0.125
-0.105
-0.1
-0.085
-0.11
-0.095
-0.08
-0.075
-0.07
-0.075
-0.065
-0.065
-0.065
-0.04
-0.025
-0.03
-0.02
-0.025
-0.01
-0.025
-0.03
-0.01
0.0
-0.01
0.0
0.02
0.015
-0.005
-0.005
0.0
-0.005
-0.01
-0.01
0.01
0.0
0.005
-0.005
0.01
0.14
0.445
0.75
0.84
0.315
-0.245
-0.315
-0.18
-0.04
0.0
0.0
0.0
0.0
0.005
0.0
0.005
0.01
0.0
-0.01
0.0
0.0
-0.005
-0.01
-0.005
0.0
0.0
0.0
0.0
0.0
0.005
0.0
0.005
0.005
0.03
0.04
0.045
0.055
0.07
0.085
0.1
0.115
0.13
0.145
0.145
0.155
0.155
0.155
0.145
0.135
0.12
0.13
0.13
0.115
0.125
0.115
0.12
0.125
0.13
0.125
0.14
0.135
0.145
0.15
0.155
0.145
0.17
0.16
0.175
0.175
0.18
0.18
0.175
0.175
0.185
0.175
0.19
0.195
0.19
0.195
0.195
0.19
0.195
0.19
0.19
0.195
0.19
0.195
0.185
0.195
0.18
0.19
0.17
0.19
0.19
0.185
0.205
0.205
0.23
0.235
0.24
0.25
0.255
0.25
0.24
0.235
0.245
0.22
0.25
0.24
0.25
0.23
0.21
0.205
0.19
0.19
0.195
0.2
0.205
0.2
0.2
0.185
0.265
0.53
0.9
1.155
0.825
0.11
-0.15
-0.095
0.095
0.15
0.155
0.135
0.135
0.135
0.125
0.12
0.13
0.12
0.125
0.12
0.115
0.125
0.12
0.11
0.11
0.115
0.115
0.125
0.125
0.115
0.115
0.11
0.125
0.125
0.13
0.135
0.14
0.14
0.15
0.17
0.19
0.21
0.215
0.22
0.235
0.245
0.235
0.235
0.215
0.195
0.18
0.2
0.205
0.195
0.205
0.215
0.205
0.205
0.215
0.185
0.195
0.205
0.225
0.21
0.225
0.225
0.22
0.215
0.215
0.235
0.245
0.26
0.245
0.245
0.255
0.43
0.74
1.04
1.095
0.52
-0.07
-0.05
0.095
0.175
0.165
0.16
0.17
0.165
0.17
0.17
0.15
0.16
0.165
0.165
0.175
0.18
0.18
0.17
0.175
0.17
0.175
0.165
0.165
0.165
0.17
0.155
0.17
0.175
0.18
0.165
0.185
0.21
0.22
0.225
0.245
0.265
0.265
0.275
0.29
0.275
0.27
0.255
0.245
0.255
0.245
0.24
0.23
0.235
0.225
0.22
0.255
0.25
0.26
0.265
0.26
0.26
0.27
0.29
0.285
0.28
0.27
0.285
0.28
0.275
0.265
0.26
0.26
0.255
0.25
0.255
0.25
0.245
0.235
0.225
0.23
0.22
0.235
0.23
0.235
0.225
0.22
0.225
0.235
0.23
0.24
0.23
0.23
0.235
0.225
0.235
0.225
0.23
0.235
0.22
0.23
0.21
0.225
0.225
0.24
0.235
0.23
0.225
0.23
0.235
0.23
0.225
0.225
0.235
0.23
0.23
0.225
0.23
0.23
0.23
0.22
0.23
0.22
0.215
0.215
0.22
0.21
0.235
0.215
0.2
0.22
0.215
0.22
0.23
0.24
0.26
0.25
0.255
0.255
0.235
0.235
0.245
0.245
0.24
0.245
0.235
0.235
0.22
0.21
0.21
0.215
0.205
0.22
0.215
0.22
0.22
0.205
0.245
0.425
0.76
1.065
0.9
0.21
-0.165
-0.115
0.05
0.145
0.135
0.12
0.13
0.12
0.115
0.11
0.11
0.095
0.1
0.1
0.095
0.1
0.095
0.09
0.085
0.075
0.085
0.085
0.085
0.075
0.07
0.09
0.085
0.08
0.08
0.075
0.095
0.09
0.105
0.11
0.12
0.14
0.15
0.165
0.18
0.205
0.21
0.215
0.2
0.205
0.2
0.195
0.195
0.17
0.17
0.155
0.155
0.155
0.155
0.15
0.165
0.155
0.15
0.16
0.165
0.17
0.17
0.19
0.195
0.195
0.19
0.185
0.175
0.165
0.165
0.165
0.165
0.16
0.14
0.135
0.12
0.12
0.115
0.115
0.115
0.105
0.105
0.105
0.095
0.105
0.115
0.105
0.11
0.105
0.095
0.075
0.08
0.095
0.08
0.085
0.09
0.07
0.09
0.085
0.08
0.115
0.105
0.11
0.105
0.12
0.11
0.095
0.09
0.11
0.105
0.12
0.11
0.1
0.1
0.06
0.065
0.055
0.05
0.05
0.055
0.04
0.06
0.045
0.04
0.125
0.385
0.71
0.93
0.575
-0.1
-0.29
-0.185
-0.025
0.02
0.005
0.01
0.01
0.01
0.0
0.005
-0.005
-0.015
-0.02
-0.01
-0.01
-0.015
-0.01
-0.01
-0.025
-0.025
-0.03
-0.02
0.0
-0.02
-0.02
-0.015
-0.01
-0.025
-0.015
-0.02
-0.015
-0.01
-0.005
-0.005
0.01
0.02
0.045
0.055
0.065
0.05
0.06
0.045
0.04
0.03
0.05
0.03
0.02
0.015
0.02
0.02
0.0
0.0
0.01
0.0
0.005
0.0
0.005
0.02
0.025
0.035
0.025
0.025
0.035
0.03
0.035
0.03
0.025
0.03
0.035
0.035
0.035
0.025
0.015
0.015
0.025
0.02
0.015
0.005
0.01
0.0
0.0
0.0
0.01
0.005
0.0
-0.005
0.0
-0.005
0.0
-0.005
-0.005
0.01
0.0
0.005
0.01
0.025
0.03
0.035
0.03
0.045
0.03
0.005
0.015
0.005
0.015
0.015
0.01
0.01
0.005
0.0
-0.01
-0.015
-0.01
-0.005
0.0
-0.005
-0.005
0.0
-0.01
0.03
0.24
0.56
0.81
0.57
-0.095
-0.42
-0.33
-0.135
-0.07
-0.07
-0.075
-0.075
-0.09
-0.085
-0.095
-0.095
-0.095
-0.105
-0.11
-0.105
-0.13
-0.13
-0.135
-0.135
-0.14
-0.135
-0.145
-0.15
-0.155
-0.17
-0.175
-0.17
-0.165
-0.155
-0.155
-0.165
-0.16
-0.15
-0.13
-0.125
-0.105
-0.085
-0.08
-0.08
-0.08
-0.09
-0.095
-0.115
-0.12
-0.135
-0.14
-0.16
-0.18
-0.18
-0.175
-0.185
-0.19
-0.19
-0.21
-0.205
-0.205
-0.215
-0.205
-0.215
-0.2
-0.195
-0.2
-0.21
-0.21
-0.215
-0.24
-0.25
-0.255
-0.27
-0.27
-0.29
-0.315
-0.32
-0.325
-0.34
-0.36
-0.355
-0.375
-0.39
-0.385
-0.385
-0.4
-0.41
-0.42
-0.415
-0.425
-0.44
-0.43
-0.45
-0.465
-0.48
-0.48
-0.49
-0.495
-0.5
-0.5
-0.5
-0.5
-0.515
-0.515
-0.52
-0.535
-0.55
-0.565
-0.57
-0.57
-0.59
-0.59
-0.595
-0.6
-0.61
-0.64
-0.64
-0.64
-0.655
-0.65
-0.665
-0.68
-0.68
-0.69
-0.645
-0.405
-0.06
0.155
-0.155
-0.84
-1.055
-0.99
-0.865
-0.825
-0.835
-0.85
-0.855
-0.86
-0.855
-0.875
-0.87
-0.865
-0.875
-0.88
-0.89
-0.905
-0.91
-0.915
-0.925
-0.935
-0.925
-0.94
-0.96
-0.95
-0.96
-0.965
-0.96
-0.965
-0.955
-0.97
-0.97
-0.96
-0.96
-0.96
-0.96
-0.945
-0.93
-0.915
-0.92
-0.915
-0.94
-0.945
-0.955
-0.97
-0.995
-0.985
-0.995
-0.995
-0.99
-0.99
-0.995
-1.0
-1.0
-1.02
-1.03
-1.015
-1.025
-1.035
-1.035
-1.035
-1.03
-1.03
-1.02
-1.01
-1.02
-1.025
-1.025
-1.03
-1.0
-0.815
-0.495
-0.215
-0.3
-0.975
-1.39
-1.32
-1.14
-1.115
-1.125
-1.13
-1.14
-1.15
-1.145
-1.14
-1.135
-1.135
-1.16
-1.15
-1.14
-1.15
-1.125
-1.155
-1.14
-1.155
-1.15
-1.155
-1.16
-1.15
-1.16
-1.16
-1.16
-1.16
-1.145
-1.145
-1.135
-1.135
-1.12
-1.11
-1.1
-1.075
-1.075
-1.07
-1.06
-1.055
-1.065
-1.07
-1.075
-1.08
-1.07
-1.08
-1.09
-1.08
-1.07
-1.07
-1.07
-1.08
-1.07
-1.06
-1.045
-1.045
-1.04
-1.025
-1.035
-1.035
-1.03
-1.025
-1.035
-1.03
-1.03
-1.02
-1.025
-1.01
-1.02
-1.025
-1.025
-1.01
-1.02
-1.03
-1.02
-1.025
-1.025
-1.035
-1.025
-1.025
-1.025
-1.02
-1.02
-1.035
-1.03
-1.025
-1.03
-1.02
-1.01
-1.015
-1.005
-1.01
-1.005
-1.005
-1.0
-0.99
-1.01
-0.995
-1.0
-0.99
-0.995
-1.005
-0.995
-0.995
-0.98
-0.975
-0.995
-0.99
-0.995
-1.005
-0.995
-0.995
-1.0
-0.985
-0.98
-0.97
-0.97
-0.97
-0.96
-0.965
-0.955
-0.955
-0.95
-0.94
-0.97
-0.955
-0.955
-0.96
-0.925
-0.905
-0.91
-0.905
-0.905
-0.9
-0.91
-0.91
-0.895
-0.895
-0.9
-0.875
-0.875
-0.88
-0.875
-0.885
-0.875
-0.88
-0.875
-0.865
-0.87
-0.87
-0.88
-0.875
-0.785
-0.505
-0.14
0.055
-0.41
-1.045
-1.145
-1.03
-0.895
-0.885
-0.895
-0.89
-0.88
-0.87
-0.865
-0.865
-0.865
-0.86
-0.855
-0.855
-0.85
-0.855
-0.865
-0.865
-0.85
-0.85
-0.84
-0.83
-0.83
-0.83
-0.83
-0.815
-0.81
-0.795
-0.79
-0.775
-0.76
-0.73
-0.725
-0.71
-0.7
-0.675
-0.66
-0.625
-0.615
-0.6
-0.605
-0.6
-0.59
-0.605
-0.585
-0.6
-0.6
-0.59
-0.595
-0.6
-0.58
-0.575
-0.565
-0.56
-0.55
-0.55
-0.55
-0.535
-0.52
-0.515
-0.505
-0.5
-0.5
-0.5
-0.485
-0.51
-0.5
-0.495
-0.485
-0.49
-0.47
-0.475
-0.48
-0.475
-0.48
-0.47
-0.465
-0.46
-0.455
-0.44
-0.45
-0.445
-0.435
-0.43
-0.435
-0.42
-0.425
-0.435
-0.44
-0.42
-0.405
-0.41
-0.395
-0.395
-0.385
-0.37
-0.355
-0.335
-0.345
-0.34
-0.31
-0.3
-0.32
-0.3
-0.295
-0.29
-0.295
-0.285
-0.3
-0.285
-0.28
-0.295
-0.31
-0.29
-0.295
-0.29
-0.27
-0.275
-0.27
-0.28
-0.27
-0.16
0.105
0.445
0.6
0.16
-0.425
-0.545
-0.445
-0.29
-0.25
-0.25
-0.25
-0.245
-0.25
-0.255
-0.25
-0.235
-0.24
-0.225
-0.225
-0.22
-0.215
-0.21
-0.205
-0.21
-0.21
-0.195
-0.175
-0.18
-0.175
-0.165
-0.16
-0.135
-0.135
-0.13
-0.125
-0.1
-0.11
-0.095
-0.08
-0.07
-0.04
-0.035
-0.015
-0.005
0.0
0.02
0.005
0.005
0.015
0.02
0.01
0.01
0.005
0.01
0.02
0.02
0.03
0.025
0.015
0.025
0.035
0.035
0.03
0.035
0.045
0.065
0.07
0.07
0.075
0.085
0.095
0.095
0.09
0.105
0.1
0.105
0.095
0.11
0.105
0.1
0.105
0.105
0.1
0.095
0.095
0.09
0.095
0.095
0.095
0.1
0.11
0.095
0.085
0.095
0.095
0.1
0.105
0.115
0.12
0.13
0.14
0.14
0.165
0.185
0.16
0.17
0.17
0.16
0.145
0.155
0.16
0.165
0.16
0.17
0.175
0.15
0.145
0.145
0.14
0.145
0.15
0.16
0.155
0.15
0.145
0.15
0.305
0.66
0.985
1.03
0.47
-0.095
-0.18
-0.045
0.075
0.11
0.1
0.09
0.105
0.095
0.095
0.085
0.1
0.115
0.11
0.115
0.105
0.105
0.105
0.11
0.105
0.115
0.1
0.1
0.105
0.11
0.105
0.12
0.12
0.13
0.13
0.14
0.155
0.16
0.18
0.185
0.205
0.23
0.245
0.255
0.255
0.265
0.26
0.25
0.23
0.23
0.23
0.245
0.24
0.25
0.255
0.245
0.265
0.27
0.25
0.25
0.265
0.27
0.3
0.285
0.295
0.295
0.295
0.31
0.305
0.315
0.305
0.31
0.3
0.325
0.49
0.8
1.08
1.13
0.58
-0.005
0.015
0.16
0.24
0.225
0.22
0.22
0.23
0.23
0.23
0.235
0.24
0.225
0.225
0.21
0.215
0.205
0.205
0.2
0.2
0.205
0.2
0.2
0.205
0.22
0.21
0.21
0.215
0.215
0.23
0.24
0.255
0.27
0.29
0.305
0.315
0.325
0.33
0.325
0.31
0.295
0.28
0.27
0.28
0.285
0.265
0.28
0.265
0.28
0.285
0.29
0.275
0.29
0.3
0.305
0.305
0.31
0.305
0.3
0.31
0.285
0.295
0.29
0.29
0.27
0.285
0.27
0.27
0.265
0.27
0.265
0.275
0.26
0.27
0.27
0.285
0.29
0.28
0.295
0.28
0.29
0.29
0.295
0.285
0.275
0.28
0.285
0.275
0.285
0.29
0.28
0.29
0.29
0.295
0.28
0.295
0.285
0.3
0.295
0.295
0.29
0.29
0.3
0.29
0.295
0.285
0.28
0.285
0.275
0.27
0.27
0.26
0.27
0.275
0.285
0.28
0.28
0.28
0.26
0.27
0.285
0.285
0.29
0.295
0.295
0.285
0.295
0.31
0.31
0.31
0.315
0.31
0.29
0.27
0.285
0.29
0.28
0.285
0.285
0.275
0.27
0.27
0.245
0.245
0.245
0.255
0.24
0.24
0.235
0.235
0.235
0.365
0.645
0.94
0.97
0.325
-0.16
-0.16
0.005
0.13
0.14
0.125
0.125
0.12
0.125
0.13
0.125
0.12
0.115
0.11
0.095
0.09
0.085
0.07
0.06
0.055
0.07
0.04
0.04
0.045
0.05
0.045
0.045
0.045
0.055
0.065
0.07
0.07
0.075
0.07
0.095
0.115
0.13
0.15
0.145
0.17
0.18
0.17
0.185
0.19
0.17
0.175
0.165
0.155
0.16
0.16
0.155
0.14
0.15
0.15
0.145
0.165
0.165
0.155
0.175
0.175
0.18
0.19
0.185
0.18
0.185
0.18
0.165
0.17
0.155
0.16
0.15
0.155
0.145
0.14
0.145
0.13
0.12
0.13
0.13
0.125
0.13
0.12
0.12
0.105
0.105
0.11
0.11
0.11
0.105
0.1
0.085
0.08
0.085
0.08
0.085
0.09
0.08
0.075
0.09
0.085
0.095
0.11
0.115
0.115
0.105
0.115
0.105
0.085
0.09
0.09
0.095
0.09
0.09
0.08
0.07
0.06
0.035
0.04
0.04
0.04
0.03
0.045
0.02
0.015
0.08
0.34
0.655
0.905
0.6
-0.065
-0.31
-0.245
-0.07
-0.015
-0.03
-0.03
-0.035
-0.04
-0.045
-0.03
-0.035
-0.04
-0.05
-0.05
-0.045
-0.055
-0.06
-0.065
-0.06
-0.055
-0.05
-0.055
-0.07
-0.06
-0.075
-0.07
-0.07
-0.07
-0.06
-0.07
-0.055
-0.055
-0.04
-0.025
-0.02
-0.005
0.0
0.005
0.005
0.015
0.0
0.015
-0.005
-0.01
-0.005
0.0
0.0
0.0
0.01
0.01
0.015
0.01
-0.01
-0.01
0.0
0.01
0.015
0.03
0.03
0.03
0.045
0.035
0.045
0.05
0.055
0.055
0.05
0.09
0.3
0.585
0.825
0.66
0.0
-0.305
-0.175
-0.035
-0.02
-0.04
-0.03
-0.035
-0.04
-0.025
-0.04
-0.04
-0.03
-0.03
-0.025
-0.015
-0.02
-0.025
-0.025
-0.02
-0.035
-0.035
-0.04
-0.04
-0.045
-0.05
-0.055
-0.05
-0.05
-0.035
-0.035
-0.02
0.0
0.02
0.025
0.04
0.035
0.065
0.075
0.055
0.06
0.04
0.035
0.015
0.025
0.015
0.015
0.015
0.005
-0.005
0.0
0.005
0.01
0.0
0.01
0.02
0.025
0.02
0.04
0.02
0.03
0.035
0.035
0.03
0.03
0.025
0.025
0.02
0.015
0.015
0.0
0.0
-0.005
0.0
0.0
-0.005
-0.005
0.0
-0.02
-0.005
-0.005
-0.01
-0.005
-0.01
-0.01
-0.005
-0.005
0.0
0.0
0.0
-0.005
-0.01
0.0
-0.005
-0.015
-0.01
-0.015
-0.025
-0.03
-0.025
-0.03
-0.025
-0.03
-0.025
-0.025
-0.02
-0.025
-0.015
-0.01
-0.01
-0.015
-0.005
-0.015
-0.02
-0.025
-0.01
0.0
-0.005
-0.01
-0.015
-0.02
-0.015
-0.015
-0.015
-0.015
-0.02
-0.01
-0.005
-0.005
0.015
0.015
0.02
0.03
0.03
0.02
0.005
0.0
0.015
0.01
0.015
0.005
0.01
0.01
-0.005
-0.02
-0.015
-0.01
-0.015
-0.005
-0.01
-0.015
-0.03
-0.025
0.06
0.34
0.68
0.865
0.41
-0.235
-0.375
-0.265
-0.115
-0.08
-0.075
-0.105
-0.095
-0.1
-0.105
-0.105
-0.11
-0.12
-0.105
-0.11
-0.125
-0.135
-0.125
-0.115
-0.125
-0.13
-0.13
-0.13
-0.135
-0.13
-0.13
-0.115
-0.12
-0.115
-0.12
-0.11
-0.11
-0.1
-0.095
-0.08
-0.06
-0.045
-0.03
-0.02
-0.015
0.015
0.025
0.02
0.02
0.015
0.025
0.005
0.01
0.005
0.015
0.0
0.0
-0.005
0.0
0.0
0.0
0.0
0.0
0.01
0.01
0.025
0.04
0.04
0.05
0.05
0.055
0.055
0.045
0.045
0.05
0.04
0.04
0.04
0.035
0.03
0.035
0.025
0.035
0.035
0.025
0.035
0.03
0.03
0.025
0.05
0.04
0.05
0.045
0.045
0.055
0.035
0.035
0.04
0.055
0.05
0.045
0.045
0.04
0.055
0.08
0.07
0.075
0.075
0.09
0.075
0.075
0.075
0.085
0.1
0.09
0.085
0.075
0.08
0.07
0.055
0.045
0.045
0.05
0.045
0.05
0.06
0.05
0.05
0.175
0.445
0.745
0.84
0.335
-0.225
-0.3
-0.145
0.0
0.02
0.03
0.015
0.01
0.005
0.005
0.01
0.0
-0.005
0.0
-0.01
0.0
-0.015
-0.015
-0.005
0.0
-0.01
-0.015
-0.025
-0.02
0.0
-0.01
0.0
0.0
0.005
0.0
0.005
0.0
0.02
0.01
0.03
0.05
0.055
0.065
0.075
0.08
0.09
0.105
0.075
0.065
0.065
0.065
0.055
0.055
0.05
0.045
0.045
0.05
0.055
0.055
0.055
0.055
0.05
0.05
0.035
0.045
0.05
0.065
0.055
0.055
0.07
0.06
0.065
0.06
0.07
0.07
0.07
0.07
0.065
0.065
0.05
0.055
0.045
0.06
0.07
0.065
0.05
0.035
0.04
0.045
0.035
0.05
0.045
0.05
0.045
0.035
0.04
0.035
0.05
0.055
0.05
0.055
0.065
0.08
0.08
0.08
0.075
0.085
0.065
0.06
0.05
0.055
0.055
0.055
0.055
0.065
0.045
0.04
0.025
0.015
0.025
0.015
0.03
0.02
0.025
0.01
0.015
0.09
0.36
0.705
0.905
0.51
-0.15
-0.34
-0.26
-0.095
-0.04
-0.045
-0.06
-0.065
-0.065
-0.075
-0.075
-0.065
-0.075
-0.08
-0.08
-0.075
-0.08
-0.08
-0.095
-0.09
-0.095
-0.1
-0.095
-0.1
-0.12
-0.11
-0.11
-0.105
-0.11
-0.09
-0.095
-0.095
-0.085
-0.08
-0.05
-0.04
-0.025
-0.02
-0.02
-0.015
-0.005
-0.015
-0.02
-0.05
-0.065
-0.065
-0.06
-0.07
-0.055
-0.065
-0.055
-0.06
-0.055
-0.06
-0.07
-0.07
-0.065
-0.05
-0.05
-0.055
-0.065
-0.06
-0.055
-0.06
